10.0001	595.00
10.0205	581.00
10.041	565.00
10.0614	549.00
10.0818	532.00
10.1023	549.00
10.1227	526.00
10.1431	579.00
10.1636	568.00
10.184	550.00
10.2044	552.00
10.2249	525.00
10.2453	524.00
10.2657	543.00
10.2862	562.00
10.3066	521.00
10.327	583.00
10.3475	562.00
10.3679	503.00
10.3883	548.00
10.4087	552.00
10.4292	525.00
10.4496	521.00
10.47	561.00
10.4905	562.00
10.5109	525.00
10.5313	519.00
10.5518	536.00
10.5722	531.00
10.5926	514.00
10.6131	513.00
10.6335	498.00
10.6539	503.00
10.6744	513.00
10.6948	487.00
10.7152	494.00
10.7357	470.00
10.7561	537.00
10.7765	518.00
10.797	519.00
10.8174	485.00
10.8378	480.00
10.8583	496.00
10.8787	481.00
10.8991	509.00
10.9196	468.00
10.94	444.00
10.9604	481.00
10.9809	516.00
11.0013	500.00
11.0217	472.00
11.0421	480.00
11.0626	489.00
11.083	503.00
11.1034	450.00
11.1239	454.00
11.1443	475.00
11.1647	446.00
11.1852	445.00
11.2056	468.00
11.226	470.00
11.2465	462.00
11.2669	487.00
11.2873	472.00
11.3078	450.00
11.3282	480.00
11.3486	490.00
11.3691	429.00
11.3895	446.00
11.4099	445.00
11.4304	466.00
11.4508	422.00
11.4712	474.00
11.4917	461.00
11.5121	438.00
11.5325	403.00
11.553	398.00
11.5734	439.00
11.5938	435.00
11.6143	434.00
11.6347	439.00
11.6551	419.00
11.6755	428.00
11.696	449.00
11.7164	445.00
11.7368	397.00
11.7573	464.00
11.7777	444.00
11.7981	416.00
11.8186	442.00
11.839	410.00
11.8594	424.00
11.8799	420.00
11.9003	431.00
11.9207	442.00
11.9412	458.00
11.9616	474.00
11.982	483.00
12.0025	467.00
12.0229	514.00
12.0433	516.00
12.0638	489.00
12.0842	459.00
12.1046	417.00
12.1251	447.00
12.1455	375.00
12.1659	374.00
12.1864	428.00
12.2068	413.00
12.2272	403.00
12.2476	402.00
12.2681	362.00
12.2885	402.00
12.3089	379.00
12.3294	356.00
12.3498	374.00
12.3702	384.00
12.3907	381.00
12.4111	348.00
12.4315	314.00
12.452	381.00
12.4724	373.00
12.4928	313.00
12.5133	360.00
12.5337	347.00
12.5541	345.00
12.5746	323.00
12.595	301.00
12.6154	338.00
12.6359	368.00
12.6563	337.00
12.6767	331.00
12.6972	317.00
12.7176	311.00
12.738	329.00
12.7585	336.00
12.7789	359.00
12.7993	312.00
12.8198	317.00
12.8402	330.00
12.8606	312.00
12.881	315.00
12.9015	300.00
12.9219	315.00
12.9423	353.00
12.9628	309.00
12.9832	326.00
13.0036	335.00
13.0241	303.00
13.0445	315.00
13.0649	290.00
13.0854	275.00
13.1058	292.00
13.1262	298.00
13.1467	291.00
13.1671	301.00
13.1875	287.00
13.208	303.00
13.2284	261.00
13.2488	289.00
13.2693	281.00
13.2897	307.00
13.3101	289.00
13.3306	319.00
13.351	263.00
13.3714	257.00
13.3919	272.00
13.4123	268.00
13.4327	289.00
13.4532	293.00
13.4736	273.00
13.494	254.00
13.5144	268.00
13.5349	272.00
13.5553	301.00
13.5757	274.00
13.5962	264.00
13.6166	259.00
13.637	276.00
13.6575	254.00
13.6779	258.00
13.6983	275.00
13.7188	278.00
13.7392	312.00
13.7596	363.00
13.7801	342.00
13.8005	340.00
13.8209	365.00
13.8414	336.00
13.8618	308.00
13.8822	274.00
13.9027	235.00
13.9231	241.00
13.9435	246.00
13.964	217.00
13.9844	226.00
14.0048	246.00
14.0253	256.00
14.0457	243.00
14.0661	240.00
14.0865	262.00
14.107	256.00
14.1274	279.00
14.1478	289.00
14.1683	283.00
14.1887	233.00
14.2091	254.00
14.2296	237.00
14.25	240.00
14.2704	240.00
14.2909	218.00
14.3113	272.00
14.3317	241.00
14.3522	213.00
14.3726	259.00
14.393	217.00
14.4135	253.00
14.4339	233.00
14.4543	204.00
14.4748	228.00
14.4952	206.00
14.5156	216.00
14.5361	241.00
14.5565	211.00
14.5769	230.00
14.5974	215.00
14.6178	223.00
14.6382	202.00
14.6587	213.00
14.6791	196.00
14.6995	221.00
14.7199	219.00
14.7404	175.00
14.7608	248.00
14.7812	214.00
14.8017	228.00
14.8221	209.00
14.8425	245.00
14.863	243.00
14.8834	205.00
14.9038	197.00
14.9243	216.00
14.9447	236.00
14.9651	207.00
14.9856	193.00
15.006	207.00
15.0264	241.00
15.0469	215.00
15.0673	236.00
15.0877	253.00
15.1082	279.00
15.1286	297.00
15.149	364.00
15.1695	361.00
15.1899	361.00
15.2103	310.00
15.2308	268.00
15.2512	236.00
15.2716	213.00
15.2921	210.00
15.3125	215.00
15.3329	178.00
15.3533	170.00
15.3738	191.00
15.3942	193.00
15.4146	180.00
15.4351	207.00
15.4555	217.00
15.4759	201.00
15.4964	190.00
15.5168	194.00
15.5372	163.00
15.5577	184.00
15.5781	179.00
15.5985	162.00
15.619	194.00
15.6394	179.00
15.6598	206.00
15.6803	158.00
15.7007	165.00
15.7211	162.00
15.7416	204.00
15.762	178.00
15.7824	163.00
15.8029	165.00
15.8233	166.00
15.8437	172.00
15.8642	154.00
15.8846	169.00
15.905	151.00
15.9254	189.00
15.9459	162.00
15.9663	174.00
15.9867	147.00
16.0072	174.00
16.0276	157.00
16.048	152.00
16.0685	160.00
16.0889	170.00
16.1093	164.00
16.1298	171.00
16.1502	163.00
16.1706	147.00
16.1911	163.00
16.2115	168.00
16.2319	161.00
16.2524	160.00
16.2728	182.00
16.2932	160.00
16.3137	141.00
16.3341	172.00
16.3545	168.00
16.375	169.00
16.3954	173.00
16.4158	178.00
16.4363	163.00
16.4567	156.00
16.4771	159.00
16.4976	136.00
16.518	159.00
16.5384	166.00
16.5588	133.00
16.5793	171.00
16.5997	138.00
16.6201	137.00
16.6406	146.00
16.661	156.00
16.6814	146.00
16.7019	160.00
16.7223	150.00
16.7427	150.00
16.7632	152.00
16.7836	159.00
16.804	141.00
16.8245	162.00
16.8449	145.00
16.8653	137.00
16.8858	135.00
16.9062	161.00
16.9266	142.00
16.9471	165.00
16.9675	157.00
16.9879	158.00
17.0084	131.00
17.0288	151.00
17.0492	157.00
17.0697	151.00
17.0901	147.00
17.1105	157.00
17.131	134.00
17.1514	174.00
17.1718	130.00
17.1922	157.00
17.2127	133.00
17.2331	150.00
17.2535	161.00
17.274	127.00
17.2944	138.00
17.3148	128.00
17.3353	137.00
17.3557	159.00
17.3761	122.00
17.3966	136.00
17.417	125.00
17.4374	149.00
17.4579	120.00
17.4783	135.00
17.4987	130.00
17.5192	136.00
17.5396	124.00
17.56	119.00
17.5805	126.00
17.6009	130.00
17.6213	117.00
17.6418	134.00
17.6622	115.00
17.6826	135.00
17.7031	118.00
17.7235	142.00
17.7439	119.00
17.7643	122.00
17.7848	111.00
17.8052	115.00
17.8256	122.00
17.8461	115.00
17.8665	135.00
17.8869	123.00
17.9074	131.00
17.9278	130.00
17.9482	132.00
17.9687	123.00
17.9891	133.00
18.0095	129.00
18.03	116.00
18.0504	136.00
18.0708	137.00
18.0913	126.00
18.1117	141.00
18.1321	134.00
18.1526	152.00
18.173	149.00
18.1934	147.00
18.2139	166.00
18.2343	139.00
18.2547	152.00
18.2752	139.00
18.2956	143.00
18.316	144.00
18.3365	162.00
18.3569	139.00
18.3773	161.00
18.3977	156.00
18.4182	156.00
18.4386	174.00
18.459	152.00
18.4795	176.00
18.4999	170.00
18.5203	185.00
18.5408	241.00
18.5612	260.00
18.5816	308.00
18.6021	396.00
18.6225	528.00
18.6429	729.00
18.6634	1017.00
18.6838	1284.00
18.7042	1680.00
18.7247	1901.00
18.7451	1723.00
18.7655	1469.00
18.786	1263.00
18.8064	965.00
18.8268	748.00
18.8473	672.00
18.8677	635.00
18.8881	630.00
18.9086	745.00
18.929	841.00
18.9494	1097.00
18.9699	1388.00
18.9903	1868.00
19.0107	2257.00
19.0311	2356.00
19.0516	2205.00
19.072	1621.00
19.0924	1193.00
19.1129	799.00
19.1333	481.00
19.1537	397.00
19.1742	266.00
19.1946	222.00
19.215	194.00
19.2355	168.00
19.2559	147.00
19.2763	132.00
19.2968	135.00
19.3172	130.00
19.3376	130.00
19.3581	137.00
19.3785	117.00
19.3989	108.00
19.4194	124.00
19.4398	105.00
19.4602	112.00
19.4807	90.00
19.5011	105.00
19.5215	95.00
19.542	95.00
19.5624	107.00
19.5828	115.00
19.6032	99.00
19.6237	96.00
19.6441	88.00
19.6645	78.00
19.685	99.00
19.7054	96.00
19.7258	88.00
19.7463	104.00
19.7667	96.00
19.7871	108.00
19.8076	108.00
19.828	120.00
19.8484	143.00
19.8689	157.00
19.8893	133.00
19.9097	110.00
19.9302	118.00
19.9506	105.00
19.971	93.00
19.9915	98.00
20.0119	83.00
20.0323	90.00
20.0528	104.00
20.0732	83.00
20.0936	77.00
20.1141	94.00
20.1345	78.00
20.1549	78.00
20.1754	95.00
20.1958	77.00
20.2162	116.00
20.2366	90.00
20.2571	66.00
20.2775	83.00
20.2979	74.00
20.3184	89.00
20.3388	76.00
20.3592	83.00
20.3797	78.00
20.4001	88.00
20.4205	85.00
20.441	82.00
20.4614	73.00
20.4818	67.00
20.5023	74.00
20.5227	101.00
20.5431	104.00
20.5636	79.00
20.584	91.00
20.6044	84.00
20.6249	84.00
20.6453	109.00
20.6657	65.00
20.6862	68.00
20.7066	84.00
20.727	77.00
20.7475	85.00
20.7679	86.00
20.7883	74.00
20.8088	76.00
20.8292	74.00
20.8496	64.00
20.87	85.00
20.8905	81.00
20.9109	71.00
20.9313	85.00
20.9518	58.00
20.9722	67.00
20.9926	91.00
21.0131	73.00
21.0335	79.00
21.0539	71.00
21.0744	76.00
21.0948	81.00
21.1152	55.00
21.1357	61.00
21.1561	58.00
21.1765	79.00
21.197	71.00
21.2174	69.00
21.2378	61.00
21.2583	81.00
21.2787	66.00
21.2991	71.00
21.3196	81.00
21.34	74.00
21.3604	72.00
21.3809	62.00
21.4013	64.00
21.4217	79.00
21.4421	72.00
21.4626	76.00
21.483	70.00
21.5034	51.00
21.5239	78.00
21.5443	84.00
21.5647	74.00
21.5852	80.00
21.6056	89.00
21.626	66.00
21.6465	60.00
21.6669	88.00
21.6873	79.00
21.7078	73.00
21.7282	75.00
21.7486	77.00
21.7691	70.00
21.7895	70.00
21.8099	81.00
21.8304	70.00
21.8508	78.00
21.8712	61.00
21.8917	64.00
21.9121	74.00
21.9325	68.00
21.953	54.00
21.9734	66.00
21.9938	74.00
22.0143	62.00
22.0347	73.00
22.0551	62.00
22.0755	65.00
22.096	71.00
22.1164	57.00
22.1368	59.00
22.1573	74.00
22.1777	56.00
22.1981	62.00
22.2186	70.00
22.239	75.00
22.2594	66.00
22.2799	64.00
22.3003	56.00
22.3207	63.00
22.3412	72.00
22.3616	82.00
22.382	81.00
22.4025	65.00
22.4229	57.00
22.4433	49.00
22.4638	65.00
22.4842	55.00
22.5046	72.00
22.5251	43.00
22.5455	52.00
22.5659	79.00
22.5864	55.00
22.6068	77.00
22.6272	58.00
22.6477	67.00
22.6681	60.00
22.6885	74.00
22.7089	63.00
22.7294	64.00
22.7498	67.00
22.7702	62.00
22.7907	51.00
22.8111	52.00
22.8315	69.00
22.852	68.00
22.8724	48.00
22.8928	77.00
22.9133	62.00
22.9337	75.00
22.9541	69.00
22.9746	61.00
22.995	59.00
23.0154	42.00
23.0359	68.00
23.0563	68.00
23.0767	57.00
23.0972	54.00
23.1176	64.00
23.138	45.00
23.1585	70.00
23.1789	57.00
23.1993	59.00
23.2198	46.00
23.2402	56.00
23.2606	70.00
23.281	67.00
23.3015	58.00
23.3219	74.00
23.3423	61.00
23.3628	68.00
23.3832	59.00
23.4036	65.00
23.4241	73.00
23.4445	71.00
23.4649	70.00
23.4854	72.00
23.5058	58.00
23.5262	68.00
23.5467	57.00
23.5671	59.00
23.5875	68.00
23.608	63.00
23.6284	68.00
23.6488	62.00
23.6693	63.00
23.6897	54.00
23.7101	58.00
23.7306	57.00
23.751	61.00
23.7714	52.00
23.7919	63.00
23.8123	57.00
23.8327	66.00
23.8532	70.00
23.8736	64.00
23.894	69.00
23.9144	59.00
23.9349	72.00
23.9553	64.00
23.9757	64.00
23.9962	82.00
24.0166	67.00
24.037	78.00
24.0575	82.00
24.0779	55.00
24.0983	69.00
24.1188	61.00
24.1392	77.00
24.1596	74.00
24.1801	106.00
24.2005	86.00
24.2209	79.00
24.2414	90.00
24.2618	63.00
24.2822	69.00
24.3027	63.00
24.3231	68.00
24.3435	64.00
24.364	63.00
24.3844	78.00
24.4048	57.00
24.4253	63.00
24.4457	73.00
24.4661	64.00
24.4866	59.00
24.507	66.00
24.5274	49.00
24.5478	58.00
24.5683	62.00
24.5887	73.00
24.6091	65.00
24.6296	67.00
24.65	60.00
24.6704	52.00
24.6909	55.00
24.7113	52.00
24.7317	54.00
24.7522	49.00
24.7726	59.00
24.793	53.00
24.8135	48.00
24.8339	52.00
24.8543	56.00
24.8748	48.00
24.8952	52.00
24.9156	42.00
24.9361	51.00
24.9565	50.00
24.9769	50.00
24.9974	53.00
25.0178	66.00
25.0382	55.00
25.0587	51.00
25.0791	76.00
25.0995	47.00
25.1199	55.00
25.1404	49.00
25.1608	58.00
25.1812	47.00
25.2017	66.00
25.2221	68.00
25.2425	41.00
25.263	58.00
25.2834	60.00
25.3038	63.00
25.3243	66.00
25.3447	64.00
25.3651	61.00
25.3856	55.00
25.406	50.00
25.4264	57.00
25.4469	59.00
25.4673	67.00
25.4877	51.00
25.5082	62.00
25.5286	57.00
25.549	62.00
25.5695	56.00
25.5899	58.00
25.6103	50.00
25.6308	61.00
25.6512	53.00
25.6716	60.00
25.6921	76.00
25.7125	77.00
25.7329	68.00
25.7533	102.00
25.7738	90.00
25.7942	79.00
25.8146	116.00
25.8351	123.00
25.8555	142.00
25.8759	203.00
25.8964	217.00
25.9168	266.00
25.9372	225.00
25.9577	222.00
25.9781	198.00
25.9985	145.00
26.019	115.00
26.0394	81.00
26.0598	89.00
26.0803	76.00
26.1007	86.00
26.1211	79.00
26.1416	72.00
26.162	75.00
26.1824	69.00
26.2029	87.00
26.2233	83.00
26.2437	80.00
26.2642	86.00
26.2846	79.00
26.305	81.00
26.3255	78.00
26.3459	75.00
26.3663	67.00
26.3867	58.00
26.4072	56.00
26.4276	72.00
26.448	72.00
26.4685	85.00
26.4889	78.00
26.5093	85.00
26.5298	93.00
26.5502	75.00
26.5706	76.00
26.5911	69.00
26.6115	71.00
26.6319	70.00
26.6524	73.00
26.6728	60.00
26.6932	51.00
26.7137	76.00
26.7341	58.00
26.7545	68.00
26.775	62.00
26.7954	61.00
26.8158	55.00
26.8363	52.00
26.8567	51.00
26.8771	54.00
26.8976	54.00
26.918	57.00
26.9384	49.00
26.9588	52.00
26.9793	57.00
26.9997	65.00
27.0201	49.00
27.0406	53.00
27.061	50.00
27.0814	68.00
27.1019	66.00
27.1223	61.00
27.1427	49.00
27.1632	61.00
27.1836	67.00
27.204	55.00
27.2245	79.00
27.2449	65.00
27.2653	61.00
27.2858	64.00
27.3062	79.00
27.3266	68.00
27.3471	62.00
27.3675	54.00
27.3879	65.00
27.4084	54.00
27.4288	68.00
27.4492	68.00
27.4697	52.00
27.4901	70.00
27.5105	74.00
27.531	64.00
27.5514	58.00
27.5718	60.00
27.5922	65.00
27.6127	58.00
27.6331	62.00
27.6535	84.00
27.674	73.00
27.6944	65.00
27.7148	92.00
27.7353	87.00
27.7557	99.00
27.7761	121.00
27.7966	129.00
27.817	127.00
27.8374	150.00
27.8579	151.00
27.8783	140.00
27.8987	148.00
27.9192	167.00
27.9396	141.00
27.96	169.00
27.9805	150.00
28.0009	167.00
28.0213	145.00
28.0418	142.00
28.0622	154.00
28.0826	137.00
28.1031	141.00
28.1235	177.00
28.1439	191.00
28.1644	189.00
28.1848	201.00
28.2052	213.00
28.2256	217.00
28.2461	218.00
28.2665	241.00
28.2869	249.00
28.3074	314.00
28.3278	405.00
28.3482	539.00
28.3687	725.00
28.3891	893.00
28.4095	1042.00
28.43	1160.00
28.4504	1088.00
28.4708	918.00
28.4913	824.00
28.5117	756.00
28.5321	682.00
28.5526	616.00
28.573	663.00
28.5934	824.00
28.6139	874.00
28.6343	1077.00
28.6547	1104.00
28.6752	1088.00
28.6956	952.00
28.716	959.00
28.7365	1020.00
28.7569	1093.00
28.7773	1426.00
28.7977	1879.00
28.8182	2837.00
28.8386	3854.00
28.859	4643.00
28.8795	4517.00
28.8999	4584.00
28.9203	4730.00
28.9408	5198.00
28.9612	5225.00
28.9816	5634.00
29.0021	5162.00
29.0225	4390.00
29.0429	3485.00
29.0634	2874.00
29.0838	2248.00
29.1042	1487.00
29.1247	964.00
29.1451	613.00
29.1655	470.00
29.186	377.00
29.2064	305.00
29.2268	266.00
29.2473	231.00
29.2677	236.00
29.2881	255.00
29.3086	247.00
29.329	196.00
29.3494	164.00
29.3699	146.00
29.3903	151.00
29.4107	137.00
29.4311	116.00
29.4516	110.00
29.472	84.00
29.4924	85.00
29.5129	87.00
29.5333	97.00
29.5537	88.00
29.5742	114.00
29.5946	85.00
29.615	85.00
29.6355	93.00
29.6559	90.00
29.6763	70.00
29.6968	69.00
29.7172	64.00
29.7376	100.00
29.7581	97.00
29.7785	101.00
29.7989	76.00
29.8194	75.00
29.8398	85.00
29.8602	82.00
29.8807	81.00
29.9011	89.00
29.9215	80.00
29.942	78.00
29.9624	80.00
29.9828	86.00
30.0033	80.00
30.0237	78.00
30.0441	78.00
30.0645	72.00
30.085	75.00
30.1054	80.00
30.1258	73.00
30.1463	76.00
30.1667	85.00
30.1871	52.00
30.2076	74.00
30.228	93.00
30.2484	83.00
30.2689	73.00
30.2893	99.00
30.3097	88.00
30.3302	81.00
30.3506	99.00
30.371	98.00
30.3915	113.00
30.4119	112.00
30.4323	126.00
30.4528	159.00
30.4732	203.00
30.4936	267.00
30.5141	526.00
30.5345	805.00
30.5549	1268.00
30.5754	1497.00
30.5958	1343.00
30.6162	1060.00
30.6366	990.00
30.6571	878.00
30.6775	675.00
30.6979	403.00
30.7184	277.00
30.7388	198.00
30.7592	160.00
30.7797	132.00
30.8001	109.00
30.8205	90.00
30.841	95.00
30.8614	103.00
30.8818	80.00
30.9023	67.00
30.9227	71.00
30.9431	76.00
30.9636	75.00
30.984	59.00
31.0044	62.00
31.0249	57.00
31.0453	61.00
31.0657	61.00
31.0862	63.00
31.1066	61.00
31.127	56.00
31.1475	52.00
31.1679	55.00
31.1883	55.00
31.2088	61.00
31.2292	59.00
31.2496	49.00
31.27	72.00
31.2905	62.00
31.3109	55.00
31.3313	63.00
31.3518	62.00
31.3722	78.00
31.3926	67.00
31.4131	81.00
31.4335	83.00
31.4539	87.00
31.4744	64.00
31.4948	69.00
31.5152	72.00
31.5357	66.00
31.5561	65.00
31.5765	54.00
31.597	51.00
31.6174	62.00
31.6378	40.00
31.6583	56.00
31.6787	63.00
31.6991	62.00
31.7196	54.00
31.74	59.00
31.7604	55.00
31.7809	61.00
31.8013	77.00
31.8217	64.00
31.8422	64.00
31.8626	84.00
31.883	93.00
31.9034	75.00
31.9239	97.00
31.9443	87.00
31.9647	90.00
31.9852	81.00
32.0056	106.00
32.026	101.00
32.0465	112.00
32.0669	87.00
32.0873	93.00
32.1078	65.00
32.1282	76.00
32.1486	63.00
32.1691	60.00
32.1895	68.00
32.2099	44.00
32.2304	68.00
32.2508	68.00
32.2712	73.00
32.2917	79.00
32.3121	54.00
32.3325	76.00
32.353	67.00
32.3734	61.00
32.3938	79.00
32.4143	75.00
32.4347	70.00
32.4551	82.00
32.4756	101.00
32.496	106.00
32.5164	145.00
32.5368	168.00
32.5573	173.00
32.5777	155.00
32.5981	149.00
32.6186	136.00
32.639	116.00
32.6594	112.00
32.6799	70.00
32.7003	74.00
32.7207	62.00
32.7412	52.00
32.7616	58.00
32.782	58.00
32.8025	45.00
32.8229	53.00
32.8433	55.00
32.8638	67.00
32.8842	51.00
32.9046	51.00
32.9251	40.00
32.9455	44.00
32.9659	53.00
32.9864	53.00
33.0068	37.00
33.0272	40.00
33.0477	51.00
33.0681	40.00
33.0885	42.00
33.1089	53.00
33.1294	44.00
33.1498	56.00
33.1702	52.00
33.1907	63.00
33.2111	54.00
33.2315	61.00
33.252	49.00
33.2724	63.00
33.2928	64.00
33.3133	60.00
33.3337	81.00
33.3541	76.00
33.3746	102.00
33.395	87.00
33.4154	115.00
33.4359	113.00
33.4563	148.00
33.4767	175.00
33.4972	171.00
33.5176	199.00
33.538	170.00
33.5585	167.00
33.5789	154.00
33.5993	126.00
33.6198	105.00
33.6402	112.00
33.6606	80.00
33.6811	62.00
33.7015	56.00
33.7219	52.00
33.7423	53.00
33.7628	59.00
33.7832	64.00
33.8036	38.00
33.8241	50.00
33.8445	52.00
33.8649	45.00
33.8854	52.00
33.9058	47.00
33.9262	44.00
33.9467	52.00
33.9671	49.00
33.9875	54.00
34.008	43.00
34.0284	43.00
34.0488	42.00
34.0693	56.00
34.0897	61.00
34.1101	57.00
34.1306	51.00
34.151	60.00
34.1714	58.00
34.1919	60.00
34.2123	66.00
34.2327	62.00
34.2532	59.00
34.2736	70.00
34.294	69.00
34.3145	67.00
34.3349	83.00
34.3553	88.00
34.3757	114.00
34.3962	98.00
34.4166	144.00
34.437	155.00
34.4575	208.00
34.4779	280.00
34.4983	372.00
34.5188	499.00
34.5392	605.00
34.5596	608.00
34.5801	617.00
34.6005	558.00
34.6209	534.00
34.6414	488.00
34.6618	411.00
34.6822	378.00
34.7027	277.00
34.7231	221.00
34.7435	187.00
34.764	169.00
34.7844	163.00
34.8048	126.00
34.8253	117.00
34.8457	108.00
34.8661	118.00
34.8866	94.00
34.907	112.00
34.9274	92.00
34.9478	107.00
34.9683	121.00
34.9887	114.00
35.0091	106.00
35.0296	115.00
35.05	118.00
35.0704	127.00
35.0909	132.00
35.1113	151.00
35.1317	165.00
35.1522	213.00
35.1726	310.00
35.193	383.00
35.2135	520.00
35.2339	608.00
35.2543	694.00
35.2748	666.00
35.2952	545.00
35.3156	482.00
35.3361	476.00
35.3565	395.00
35.3769	297.00
35.3974	216.00
35.4178	149.00
35.4382	133.00
35.4587	97.00
35.4791	101.00
35.4995	62.00
35.52	76.00
35.5404	61.00
35.5608	67.00
35.5812	48.00
35.6017	46.00
35.6221	46.00
35.6425	38.00
35.663	43.00
35.6834	55.00
35.7038	38.00
35.7243	45.00
35.7447	37.00
35.7651	51.00
35.7856	48.00
35.806	33.00
35.8264	36.00
35.8469	42.00
35.8673	39.00
35.8877	34.00
35.9082	43.00
35.9286	43.00
35.949	31.00
35.9695	43.00
35.9899	35.00
36.0103	36.00
36.0308	38.00
36.0512	39.00
36.0716	30.00
36.0921	34.00
36.1125	31.00
36.1329	44.00
36.1534	30.00
36.1738	36.00
36.1942	30.00
36.2146	43.00
36.2351	37.00
36.2555	51.00
36.2759	46.00
36.2964	32.00
36.3168	33.00
36.3372	33.00
36.3577	32.00
36.3781	27.00
36.3985	40.00
36.419	44.00
36.4394	46.00
36.4598	45.00
36.4803	47.00
36.5007	45.00
36.5211	38.00
36.5416	42.00
36.562	42.00
36.5824	45.00
36.6029	56.00
36.6233	48.00
36.6437	49.00
36.6642	48.00
36.6846	57.00
36.705	51.00
36.7255	37.00
36.7459	40.00
36.7663	43.00
36.7867	53.00
36.8072	38.00
36.8276	51.00
36.848	38.00
36.8685	29.00
36.8889	52.00
36.9093	49.00
36.9298	39.00
36.9502	48.00
36.9706	39.00
36.9911	43.00
37.0115	45.00
37.0319	45.00
37.0524	36.00
37.0728	51.00
37.0932	48.00
37.1137	31.00
37.1341	41.00
37.1545	42.00
37.175	32.00
37.1954	41.00
37.2158	36.00
37.2363	34.00
37.2567	28.00
37.2771	45.00
37.2976	34.00
37.318	35.00
37.3384	29.00
37.3589	31.00
37.3793	42.00
37.3997	34.00
37.4201	39.00
37.4406	32.00
37.461	39.00
37.4814	39.00
37.5019	42.00
37.5223	31.00
37.5427	38.00
37.5632	35.00
37.5836	46.00
37.604	31.00
37.6245	33.00
37.6449	45.00
37.6653	39.00
37.6858	39.00
37.7062	45.00
37.7266	39.00
37.7471	53.00
37.7675	38.00
37.7879	34.00
37.8084	41.00
37.8288	45.00
37.8492	51.00
37.8697	54.00
37.8901	57.00
37.9105	54.00
37.931	70.00
37.9514	76.00
37.9718	53.00
37.9923	53.00
38.0127	61.00
38.0331	43.00
38.0535	60.00
38.074	54.00
38.0944	48.00
38.1148	39.00
38.1353	41.00
38.1557	35.00
38.1761	42.00
38.1966	42.00
38.217	43.00
38.2374	40.00
38.2579	37.00
38.2783	38.00
38.2987	46.00
38.3192	38.00
38.3396	37.00
38.36	32.00
38.3805	47.00
38.4009	36.00
38.4213	29.00
38.4418	28.00
38.4622	28.00
38.4826	43.00
38.5031	40.00
38.5235	34.00
38.5439	39.00
38.5644	34.00
38.5848	29.00
38.6052	32.00
38.6256	37.00
38.6461	31.00
38.6665	44.00
38.6869	36.00
38.7074	44.00
38.7278	40.00
38.7482	31.00
38.7687	43.00
38.7891	40.00
38.8095	36.00
38.83	30.00
38.8504	37.00
38.8708	48.00
38.8913	32.00
38.9117	40.00
38.9321	47.00
38.9526	43.00
38.973	46.00
38.9934	45.00
39.0139	49.00
39.0343	41.00
39.0547	56.00
39.0752	47.00
39.0956	47.00
39.116	47.00
39.1365	45.00
39.1569	45.00
39.1773	48.00
39.1978	46.00
39.2182	56.00
39.2386	53.00
39.259	55.00
39.2795	52.00
39.2999	56.00
39.3203	66.00
39.3408	69.00
39.3612	71.00
39.3816	79.00
39.4021	83.00
39.4225	123.00
39.4429	140.00
39.4634	197.00
39.4838	242.00
39.5042	218.00
39.5247	228.00
39.5451	213.00
39.5655	245.00
39.586	273.00
39.6064	286.00
39.6268	274.00
39.6473	233.00
39.6677	216.00
39.6881	193.00
39.7086	206.00
39.729	213.00
39.7494	237.00
39.7699	293.00
39.7903	369.00
39.8107	496.00
39.8312	491.00
39.8516	461.00
39.872	386.00
39.8924	397.00
39.9129	386.00
39.9333	406.00
39.9537	349.00
39.9742	333.00
39.9946	309.00
40.015	308.00
40.0355	325.00
40.0559	382.00
40.0763	468.00
40.0968	462.00
40.1172	412.00
40.1376	320.00
40.1581	291.00
40.1785	303.00
40.1989	314.00
40.2194	263.00
40.2398	221.00
40.2602	214.00
40.2807	222.00
40.3011	206.00
40.3215	220.00
40.342	170.00
40.3624	166.00
40.3828	151.00
40.4033	154.00
40.4237	152.00
40.4441	145.00
40.4645	146.00
40.485	172.00
40.5054	198.00
40.5258	243.00
40.5463	282.00
40.5667	313.00
40.5871	315.00
40.6076	338.00
40.628	357.00
40.6484	334.00
40.6689	326.00
40.6893	297.00
40.7097	266.00
40.7302	251.00
40.7506	249.00
40.771	197.00
40.7915	170.00
40.8119	153.00
40.8323	126.00
40.8528	120.00
40.8732	99.00
40.8936	98.00
40.9141	104.00
40.9345	115.00
40.9549	90.00
40.9754	96.00
40.9958	83.00
41.0162	71.00
41.0367	89.00
41.0571	75.00
41.0775	86.00
41.0979	70.00
41.1184	66.00
41.1388	62.00
41.1592	60.00
41.1797	62.00
41.2001	58.00
41.2205	66.00
41.241	71.00
41.2614	68.00
41.2818	75.00
41.3023	52.00
41.3227	59.00
41.3431	63.00
41.3636	67.00
41.384	67.00
41.4044	50.00
41.4249	52.00
41.4453	59.00
41.4657	57.00
41.4862	59.00
41.5066	49.00
41.527	54.00
41.5475	45.00
41.5679	53.00
41.5883	64.00
41.6088	55.00
41.6292	51.00
41.6496	70.00
41.6701	61.00
41.6905	59.00
41.7109	56.00
41.7313	45.00
41.7518	47.00
41.7722	61.00
41.7926	47.00
41.8131	46.00
41.8335	47.00
41.8539	41.00
41.8744	47.00
41.8948	71.00
41.9152	47.00
41.9357	62.00
41.9561	48.00
41.9765	46.00
41.997	48.00
42.0174	53.00
42.0378	60.00
42.0583	42.00
42.0787	67.00
42.0991	60.00
42.1196	50.00
42.14	55.00
42.1604	59.00
42.1809	55.00
42.2013	63.00
42.2217	52.00
42.2422	63.00
42.2626	74.00
42.283	87.00
42.3034	106.00
42.3239	140.00
42.3443	174.00
42.3647	180.00
42.3852	203.00
42.4056	200.00
42.426	225.00
42.4465	223.00
42.4669	324.00
42.4873	454.00
42.5078	449.00
42.5282	430.00
42.5486	347.00
42.5691	326.00
42.5895	260.00
42.6099	261.00
42.6304	262.00
42.6508	202.00
42.6712	166.00
42.6917	118.00
42.7121	106.00
42.7325	81.00
42.753	55.00
42.7734	72.00
42.7938	79.00
42.8143	39.00
42.8347	61.00
42.8551	50.00
42.8756	46.00
42.896	43.00
42.9164	54.00
42.9368	41.00
42.9573	40.00
42.9777	39.00
42.9981	36.00
43.0186	61.00
43.039	48.00
43.0594	46.00
43.0799	39.00
43.1003	34.00
43.1207	34.00
43.1412	52.00
43.1616	37.00
43.182	44.00
43.2025	43.00
43.2229	45.00
43.2433	32.00
43.2638	36.00
43.2842	34.00
43.3046	50.00
43.3251	36.00
43.3455	39.00
43.3659	39.00
43.3864	50.00
43.4068	44.00
43.4272	31.00
43.4477	32.00
43.4681	42.00
43.4885	39.00
43.509	35.00
43.5294	37.00
43.5498	32.00
43.5702	33.00
43.5907	38.00
43.6111	34.00
43.6315	31.00
43.652	29.00
43.6724	47.00
43.6928	44.00
43.7133	33.00
43.7337	44.00
43.7541	52.00
43.7746	33.00
43.795	33.00
43.8154	35.00
43.8359	37.00
43.8563	36.00
43.8767	34.00
43.8972	38.00
43.9176	29.00
43.938	45.00
43.9585	30.00
43.9789	44.00
43.9993	35.00
44.0198	29.00
44.0402	37.00
44.0606	36.00
44.0811	25.00
44.1015	37.00
44.1219	43.00
44.1423	31.00
44.1628	37.00
44.1832	37.00
44.2036	46.00
44.2241	38.00
44.2445	41.00
44.2649	34.00
44.2854	36.00
44.3058	34.00
44.3262	46.00
44.3467	34.00
44.3671	41.00
44.3875	31.00
44.408	41.00
44.4284	33.00
44.4488	42.00
44.4693	41.00
44.4897	43.00
44.5101	36.00
44.5306	47.00
44.551	34.00
44.5714	44.00
44.5919	34.00
44.6123	37.00
44.6327	38.00
44.6532	32.00
44.6736	35.00
44.694	40.00
44.7145	43.00
44.7349	26.00
44.7553	30.00
44.7757	27.00
44.7962	27.00
44.8166	49.00
44.837	49.00
44.8575	31.00
44.8779	40.00
44.8983	28.00
44.9188	38.00
44.9392	45.00
44.9596	35.00
44.9801	45.00
45.0005	35.00
45.0209	35.00
45.0414	33.00
45.0618	35.00
45.0822	35.00
45.1027	41.00
45.1231	40.00
45.1435	43.00
45.164	40.00
45.1844	48.00
45.2048	43.00
45.2253	48.00
45.2457	53.00
45.2661	56.00
45.2866	49.00
45.307	50.00
45.3274	63.00
45.3479	62.00
45.3683	75.00
45.3887	70.00
45.4091	95.00
45.4296	130.00
45.45	123.00
45.4704	178.00
45.4909	196.00
45.5113	181.00
45.5317	169.00
45.5522	163.00
45.5726	192.00
45.593	185.00
45.6135	159.00
45.6339	181.00
45.6543	178.00
45.6748	183.00
45.6952	170.00
45.7156	144.00
45.7361	143.00
45.7565	168.00
45.7769	136.00
45.7974	177.00
45.8178	165.00
45.8382	179.00
45.8587	182.00
45.8791	187.00
45.8995	248.00
45.92	261.00
45.9404	243.00
45.9608	212.00
45.9812	188.00
46.0017	184.00
46.0221	265.00
46.0425	255.00
46.063	308.00
46.0834	313.00
46.1038	353.00
46.1243	305.00
46.1447	251.00
46.1651	187.00
46.1856	205.00
46.206	200.00
46.2264	208.00
46.2469	164.00
46.2673	134.00
46.2877	120.00
46.3082	95.00
46.3286	75.00
46.349	82.00
46.3695	78.00
46.3899	94.00
46.4103	73.00
46.4308	63.00
46.4512	76.00
46.4716	76.00
46.4921	76.00
46.5125	87.00
46.5329	99.00
46.5534	113.00
46.5738	108.00
46.5942	139.00
46.6146	129.00
46.6351	177.00
46.6555	185.00
46.6759	233.00
46.6964	300.00
46.7168	418.00
46.7372	481.00
46.7577	555.00
46.7781	573.00
46.7985	649.00
46.819	542.00
46.8394	476.00
46.8598	485.00
46.8803	470.00
46.9007	463.00
46.9211	418.00
46.9416	319.00
46.962	283.00
46.9824	238.00
47.0029	214.00
47.0233	194.00
47.0437	195.00
47.0642	178.00
47.0846	183.00
47.105	161.00
47.1255	145.00
47.1459	137.00
47.1663	155.00
47.1868	162.00
47.2072	178.00
47.2276	258.00
47.248	328.00
47.2685	397.00
47.2889	532.00
47.3093	673.00
47.3298	706.00
47.3502	634.00
47.3706	513.00
47.3911	413.00
47.4115	408.00
47.4319	418.00
47.4524	380.00
47.4728	347.00
47.4932	267.00
47.5137	245.00
47.5341	177.00
47.5545	129.00
47.575	115.00
47.5954	89.00
47.6158	85.00
47.6363	73.00
47.6567	69.00
47.6771	59.00
47.6976	71.00
47.718	49.00
47.7384	65.00
47.7589	55.00
47.7793	55.00
47.7997	47.00
47.8201	47.00
47.8406	48.00
47.861	50.00
47.8814	48.00
47.9019	54.00
47.9223	55.00
47.9427	55.00
47.9632	58.00
47.9836	48.00
48.004	53.00
48.0245	56.00
48.0449	58.00
48.0653	54.00
48.0858	51.00
48.1062	50.00
48.1266	47.00
48.1471	51.00
48.1675	49.00
48.1879	63.00
48.2084	48.00
48.2288	49.00
48.2492	46.00
48.2697	59.00
48.2901	63.00
48.3105	65.00
48.331	68.00
48.3514	66.00
48.3718	66.00
48.3923	53.00
48.4127	55.00
48.4331	70.00
48.4535	49.00
48.474	60.00
48.4944	56.00
48.5148	54.00
48.5353	56.00
48.5557	53.00
48.5761	52.00
48.5966	46.00
48.617	45.00
48.6374	64.00
48.6579	43.00
48.6783	46.00
48.6987	59.00
48.7192	51.00
48.7396	52.00
48.76	44.00
48.7805	38.00
48.8009	41.00
48.8213	47.00
48.8418	38.00
48.8622	48.00
48.8826	31.00
48.9031	33.00
48.9235	41.00
48.9439	47.00
48.9644	47.00
48.9848	41.00
49.0052	51.00
49.0257	38.00
49.0461	49.00
49.0665	48.00
49.0869	40.00
49.1074	31.00
49.1278	37.00
49.1482	37.00
49.1687	46.00
49.1891	35.00
49.2095	47.00
49.23	48.00
49.2504	49.00
49.2708	34.00
49.2913	44.00
49.3117	40.00
49.3321	43.00
49.3526	32.00
49.373	43.00
49.3934	46.00
49.4139	56.00
49.4343	53.00
49.4547	45.00
49.4752	47.00
49.4956	51.00
49.516	52.00
49.5365	45.00
49.5569	44.00
49.5773	34.00
49.5978	60.00
49.6182	53.00
49.6386	58.00
49.659	49.00
49.6795	65.00
49.6999	76.00
49.7203	70.00
49.7408	60.00
49.7612	78.00
49.7816	92.00
49.8021	67.00
49.8225	67.00
49.8429	63.00
49.8634	79.00
49.8838	98.00
49.9042	119.00
49.9247	140.00
49.9451	163.00
49.9655	248.00
49.986	267.00
50.0064	289.00
50.0268	247.00
50.0473	229.00
50.0677	234.00
50.0881	216.00
50.1086	237.00
50.129	237.00
50.1494	204.00
50.1699	216.00
50.1903	215.00
50.2107	232.00
50.2312	210.00
50.2516	222.00
50.272	257.00
50.2924	308.00
50.3129	317.00
50.3333	428.00
50.3537	399.00
50.3742	347.00
50.3946	284.00
50.415	245.00
50.4355	239.00
50.4559	233.00
50.4763	234.00
50.4968	216.00
50.5172	192.00
50.5376	146.00
50.5581	112.00
50.5785	90.00
50.5989	84.00
50.6194	71.00
50.6398	62.00
50.6602	64.00
50.6807	59.00
50.7011	64.00
50.7215	61.00
50.742	60.00
50.7624	54.00
50.7828	46.00
50.8033	43.00
50.8237	38.00
50.8441	33.00
50.8646	50.00
50.885	50.00
50.9054	50.00
50.9258	35.00
50.9463	45.00
50.9667	51.00
50.9871	52.00
51.0076	54.00
51.028	43.00
51.0484	48.00
51.0689	34.00
51.0893	55.00
51.1097	39.00
51.1302	44.00
51.1506	33.00
51.171	46.00
51.1915	32.00
51.2119	53.00
51.2323	41.00
51.2528	53.00
51.2732	42.00
51.2936	31.00
51.3141	42.00
51.3345	26.00
51.3549	36.00
51.3754	25.00
51.3958	40.00
51.4162	38.00
51.4367	46.00
51.4571	50.00
51.4775	46.00
51.4979	42.00
51.5184	59.00
51.5388	38.00
51.5592	39.00
51.5797	48.00
51.6001	48.00
51.6205	49.00
51.641	38.00
51.6614	54.00
51.6818	62.00
51.7023	41.00
51.7227	56.00
51.7431	51.00
51.7636	46.00
51.784	46.00
51.8044	46.00
51.8249	38.00
51.8453	46.00
51.8657	42.00
51.8862	39.00
51.9066	56.00
51.927	43.00
51.9475	52.00
51.9679	41.00
51.9883	47.00
52.0088	44.00
52.0292	54.00
52.0496	41.00
52.0701	46.00
52.0905	49.00
52.1109	48.00
52.1313	48.00
52.1518	52.00
52.1722	45.00
52.1926	42.00
52.2131	48.00
52.2335	63.00
52.2539	41.00
52.2744	37.00
52.2948	45.00
52.3152	46.00
52.3357	36.00
52.3561	44.00
52.3765	63.00
52.397	49.00
52.4174	42.00
52.4378	43.00
52.4583	57.00
52.4787	42.00
52.4991	54.00
52.5196	46.00
52.54	42.00
52.5604	47.00
52.5809	53.00
52.6013	47.00
52.6217	43.00
52.6422	54.00
52.6626	39.00
52.683	40.00
52.7035	45.00
52.7239	56.00
52.7443	42.00
52.7647	46.00
52.7852	40.00
52.8056	63.00
52.826	46.00
52.8465	62.00
52.8669	68.00
52.8873	49.00
52.9078	62.00
52.9282	62.00
52.9486	69.00
52.9691	67.00
52.9895	69.00
53.0099	72.00
53.0304	78.00
53.0508	85.00
53.0712	93.00
53.0917	84.00
53.1121	103.00
53.1325	112.00
53.153	129.00
53.1734	174.00
53.1938	251.00
53.2143	291.00
53.2347	402.00
53.2551	491.00
53.2756	533.00
53.296	557.00
53.3164	637.00
53.3368	607.00
53.3573	573.00
53.3777	501.00
53.3981	455.00
53.4186	420.00
53.439	401.00
53.4594	386.00
53.4799	341.00
53.5003	307.00
53.5207	271.00
53.5412	226.00
53.5616	169.00
53.582	173.00
53.6025	132.00
53.6229	138.00
53.6433	129.00
53.6638	96.00
53.6842	86.00
53.7046	96.00
53.7251	81.00
53.7455	72.00
53.7659	59.00
53.7864	69.00
53.8068	62.00
53.8272	71.00
53.8477	62.00
53.8681	53.00
53.8885	59.00
53.909	52.00
53.9294	63.00
53.9498	60.00
53.9702	46.00
53.9907	61.00
54.0111	63.00
54.0315	48.00
54.052	66.00
54.0724	66.00
54.0928	68.00
54.1133	66.00
54.1337	73.00
54.1541	76.00
54.1746	63.00
54.195	56.00
54.2154	73.00
54.2359	48.00
54.2563	85.00
54.2767	56.00
54.2972	66.00
54.3176	74.00
54.338	59.00
54.3585	58.00
54.3789	56.00
54.3993	59.00
54.4198	56.00
54.4402	65.00
54.4606	69.00
54.4811	71.00
54.5015	69.00
54.5219	89.00
54.5424	73.00
54.5628	98.00
54.5832	94.00
54.6036	101.00
54.6241	123.00
54.6445	120.00
54.6649	84.00
54.6854	76.00
54.7058	81.00
54.7262	97.00
54.7467	84.00
54.7671	90.00
54.7875	71.00
54.808	78.00
54.8284	74.00
54.8488	76.00
54.8693	55.00
54.8897	60.00
54.9101	62.00
54.9306	46.00
54.951	67.00
54.9714	60.00
54.9919	51.00
55.0123	50.00
55.0327	67.00
55.0532	42.00
55.0736	58.00
55.094	49.00
55.1145	57.00
55.1349	66.00
55.1553	74.00
55.1757	60.00
55.1962	54.00
55.2166	58.00
55.237	49.00
55.2575	54.00
55.2779	62.00
55.2983	66.00
55.3188	50.00
55.3392	43.00
55.3596	49.00
55.3801	50.00
55.4005	43.00
55.4209	37.00
55.4414	60.00
55.4618	45.00
55.4822	51.00
55.5027	35.00
55.5231	41.00
55.5435	42.00
55.564	38.00
55.5844	48.00
55.6048	46.00
55.6253	44.00
55.6457	43.00
55.6661	48.00
55.6866	62.00
55.707	68.00
55.7274	54.00
55.7479	80.00
55.7683	101.00
55.7887	92.00
55.8091	96.00
55.8296	92.00
55.85	103.00
55.8704	72.00
55.8909	128.00
55.9113	116.00
55.9317	120.00
55.9522	126.00
55.9726	96.00
55.993	108.00
56.0135	85.00
56.0339	94.00
56.0543	99.00
56.0748	89.00
56.0952	85.00
56.1156	95.00
56.1361	73.00
56.1565	78.00
56.1769	85.00
56.1974	75.00
56.2178	74.00
56.2382	76.00
56.2587	74.00
56.2791	74.00
56.2995	74.00
56.32	63.00
56.3404	64.00
56.3608	50.00
56.3813	69.00
56.4017	61.00
56.4221	53.00
56.4425	43.00
56.463	51.00
56.4834	56.00
56.5038	37.00
56.5243	46.00
56.5447	33.00
56.5651	42.00
56.5856	41.00
56.606	40.00
56.6264	33.00
56.6469	33.00
56.6673	34.00
56.6877	35.00
56.7082	33.00
56.7286	51.00
56.749	28.00
56.7695	36.00
56.7899	36.00
56.8103	42.00
56.8308	35.00
56.8512	38.00
56.8716	41.00
56.8921	47.00
56.9125	36.00
56.9329	34.00
56.9534	45.00
56.9738	43.00
56.9942	33.00
57.0146	41.00
57.0351	33.00
57.0555	38.00
57.0759	36.00
57.0964	42.00
57.1168	45.00
57.1372	32.00
57.1577	40.00
57.1781	33.00
57.1985	38.00
57.219	49.00
57.2394	55.00
57.2598	47.00
57.2803	38.00
57.3007	46.00
57.3211	40.00
57.3416	51.00
57.362	36.00
57.3824	45.00
57.4029	52.00
57.4233	44.00
57.4437	31.00
57.4642	45.00
57.4846	39.00
57.505	38.00
57.5255	41.00
57.5459	48.00
57.5663	51.00
57.5868	41.00
57.6072	55.00
57.6276	45.00
57.648	48.00
57.6685	44.00
57.6889	56.00
57.7093	59.00
57.7298	53.00
57.7502	58.00
57.7706	44.00
57.7911	51.00
57.8115	56.00
57.8319	68.00
57.8524	77.00
57.8728	88.00
57.8932	128.00
57.9137	130.00
57.9341	135.00
57.9545	155.00
57.975	145.00
57.9954	120.00
58.0158	137.00
58.0363	123.00
58.0567	145.00
58.0771	133.00
58.0976	145.00
58.118	133.00
58.1384	115.00
58.1589	145.00
58.1793	131.00
58.1997	124.00
58.2202	153.00
58.2406	184.00
58.261	244.00
58.2814	273.00
58.3019	305.00
58.3223	323.00
58.3427	332.00
58.3632	337.00
58.3836	315.00
58.404	284.00
58.4245	275.00
58.4449	260.00
58.4653	313.00
58.4858	292.00
58.5062	307.00
58.5266	337.00
58.5471	307.00
58.5675	335.00
58.5879	331.00
58.6084	283.00
58.6288	284.00
58.6492	257.00
58.6697	237.00
58.6901	247.00
58.7105	193.00
58.731	232.00
58.7514	215.00
58.7718	199.00
58.7923	179.00
58.8127	152.00
58.8331	145.00
58.8535	142.00
58.874	122.00
58.8944	125.00
58.9148	101.00
58.9353	97.00
58.9557	113.00
58.9761	121.00
58.9966	104.00
59.017	101.00
59.0374	96.00
59.0579	102.00
59.0783	78.00
59.0987	91.00
59.1192	104.00
59.1396	113.00
59.16	133.00
59.1805	126.00
59.2009	181.00
59.2213	188.00
59.2418	247.00
59.2622	259.00
59.2826	334.00
59.3031	303.00
59.3235	264.00
59.3439	255.00
59.3644	233.00
59.3848	233.00
59.4052	252.00
59.4257	262.00
59.4461	340.00
59.4665	339.00
59.4869	379.00
59.5074	367.00
59.5278	373.00
59.5482	303.00
59.5687	292.00
59.5891	251.00
59.6095	259.00
59.63	252.00
59.6504	277.00
59.6708	316.00
59.6913	334.00
59.7117	352.00
59.7321	329.00
59.7526	286.00
59.773	274.00
59.7934	232.00
59.8139	233.00
59.8343	189.00
59.8547	208.00
59.8752	205.00
59.8956	198.00
59.916	228.00
59.9365	201.00
59.9569	189.00
59.9773	209.00
59.9978	243.00
60.0182	209.00
60.0386	271.00
60.0591	230.00
60.0795	208.00
60.0999	188.00
60.1203	141.00
60.1408	148.00
60.1612	160.00
60.1816	146.00
60.2021	160.00
60.2225	116.00
60.2429	101.00
60.2634	85.00
60.2838	100.00
60.3042	77.00
60.3247	51.00
60.3451	66.00
60.3655	53.00
60.386	43.00
60.4064	47.00
60.4268	51.00
60.4473	43.00
60.4677	60.00
60.4881	35.00
60.5086	37.00
60.529	35.00
60.5494	50.00
60.5699	27.00
60.5903	39.00
60.6107	45.00
60.6312	44.00
60.6516	51.00
60.672	50.00
60.6924	39.00
60.7129	48.00
60.7333	39.00
60.7537	44.00
60.7742	37.00
60.7946	42.00
60.815	36.00
60.8355	39.00
60.8559	47.00
60.8763	42.00
60.8968	42.00
60.9172	36.00
60.9376	31.00
60.9581	32.00
60.9785	23.00
60.9989	41.00
61.0194	30.00
61.0398	44.00
61.0602	29.00
61.0807	38.00
61.1011	36.00
61.1215	25.00
61.142	33.00
61.1624	31.00
61.1828	25.00
61.2033	43.00
61.2237	30.00
61.2441	34.00
61.2646	36.00
61.285	34.00
61.3054	23.00
61.3258	25.00
61.3463	31.00
61.3667	38.00
61.3871	35.00
61.4076	31.00
61.428	27.00
61.4484	35.00
61.4689	25.00
61.4893	21.00
61.5097	28.00
61.5302	25.00
61.5506	28.00
61.571	36.00
61.5915	15.00
61.6119	31.00
61.6323	29.00
61.6528	30.00
61.6732	29.00
61.6936	28.00
61.7141	37.00
61.7345	28.00
61.7549	32.00
61.7754	20.00
61.7958	28.00
61.8162	36.00
61.8367	30.00
61.8571	22.00
61.8775	25.00
61.898	24.00
61.9184	22.00
61.9388	24.00
61.9592	23.00
61.9797	29.00
62.0001	24.00
62.0205	30.00
62.041	29.00
62.0614	23.00
62.0818	28.00
62.1023	34.00
62.1227	36.00
62.1431	27.00
62.1636	39.00
62.184	34.00
62.2044	30.00
62.2249	37.00
62.2453	19.00
62.2657	43.00
62.2862	25.00
62.3066	30.00
62.327	26.00
62.3475	19.00
62.3679	33.00
62.3883	23.00
62.4088	32.00
62.4292	32.00
62.4496	32.00
62.4701	26.00
62.4905	31.00
62.5109	30.00
62.5313	31.00
62.5518	41.00
62.5722	34.00
62.5926	22.00
62.6131	27.00
62.6335	21.00
62.6539	21.00
62.6744	30.00
62.6948	28.00
62.7152	23.00
62.7357	33.00
62.7561	30.00
62.7765	26.00
62.797	25.00
62.8174	33.00
62.8378	33.00
62.8583	26.00
62.8787	36.00
62.8991	26.00
62.9196	20.00
62.94	31.00
62.9604	24.00
62.9809	29.00
63.0013	31.00
63.0217	39.00
63.0422	36.00
63.0626	31.00
63.083	28.00
63.1035	22.00
63.1239	30.00
63.1443	29.00
63.1647	33.00
63.1852	34.00
63.2056	27.00
63.226	26.00
63.2465	35.00
63.2669	37.00
63.2873	32.00
63.3078	27.00
63.3282	28.00
63.3486	24.00
63.3691	26.00
63.3895	26.00
63.4099	30.00
63.4304	26.00
63.4508	32.00
63.4712	32.00
63.4917	26.00
63.5121	47.00
63.5325	56.00
63.553	60.00
63.5734	80.00
63.5938	68.00
63.6143	79.00
63.6347	70.00
63.6551	61.00
63.6756	47.00
63.696	51.00
63.7164	54.00
63.7369	55.00
63.7573	49.00
63.7777	48.00
63.7981	49.00
63.8186	42.00
63.839	55.00
63.8594	39.00
63.8799	37.00
63.9003	43.00
63.9207	39.00
63.9412	25.00
63.9616	32.00
63.982	31.00
64.0025	35.00
64.0229	28.00
64.0433	27.00
64.0638	34.00
64.0842	26.00
64.1046	31.00
64.1251	23.00
64.1455	27.00
64.1659	31.00
64.1864	24.00
64.2068	23.00
64.2272	38.00
64.2477	24.00
64.2681	22.00
64.2885	25.00
64.309	27.00
64.3294	22.00
64.3498	34.00
64.3702	30.00
64.3907	19.00
64.4111	32.00
64.4315	24.00
64.452	29.00
64.4724	29.00
64.4928	19.00
64.5133	25.00
64.5337	29.00
64.5541	18.00
64.5746	22.00
64.595	26.00
64.6154	28.00
64.6359	20.00
64.6563	28.00
64.6767	28.00
64.6972	22.00
64.7176	24.00
64.738	20.00
64.7585	25.00
64.7789	25.00
64.7993	38.00
64.8198	24.00
64.8402	25.00
64.8606	23.00
64.8811	32.00
64.9015	39.00
64.9219	27.00
64.9424	24.00
64.9628	36.00
64.9832	17.00
65.0036	33.00
65.0241	30.00
65.0445	20.00
65.0649	28.00
65.0854	44.00
65.1058	32.00
65.1262	32.00
65.1467	22.00
65.1671	30.00
65.1875	24.00
65.208	34.00
65.2284	29.00
65.2488	29.00
65.2693	24.00
65.2897	21.00
65.3101	42.00
65.3306	39.00
65.351	43.00
65.3714	32.00
65.3919	31.00
65.4123	31.00
65.4327	39.00
65.4532	44.00
65.4736	34.00
65.494	36.00
65.5145	45.00
65.5349	37.00
65.5553	35.00
65.5758	36.00
65.5962	36.00
65.6166	38.00
65.637	40.00
65.6575	40.00
65.6779	23.00
65.6983	31.00
65.7188	44.00
65.7392	35.00
65.7596	29.00
65.7801	26.00
65.8005	37.00
65.8209	52.00
65.8414	52.00
65.8618	54.00
65.8822	62.00
65.9027	78.00
65.9231	78.00
65.9435	85.00
65.964	69.00
65.9844	67.00
66.0048	87.00
66.0253	91.00
66.0457	71.00
66.0661	69.00
66.0866	79.00
66.107	74.00
66.1274	63.00
66.1479	69.00
66.1683	64.00
66.1887	68.00
66.2091	66.00
66.2296	63.00
66.25	60.00
66.2704	52.00
66.2909	54.00
66.3113	64.00
66.3317	44.00
66.3522	53.00
66.3726	55.00
66.393	67.00
66.4135	75.00
66.4339	66.00
66.4543	68.00
66.4748	80.00
66.4952	74.00
66.5156	81.00
66.5361	71.00
66.5565	79.00
66.5769	92.00
66.5974	65.00
66.6178	53.00
66.6382	64.00
66.6587	80.00
66.6791	64.00
66.6995	69.00
66.72	63.00
66.7404	62.00
66.7608	53.00
66.7813	43.00
66.8017	43.00
66.8221	41.00
66.8425	38.00
66.863	37.00
66.8834	37.00
66.9038	44.00
66.9243	34.00
66.9447	22.00
66.9651	27.00
66.9856	29.00
67.006	33.00
67.0264	30.00
67.0469	27.00
67.0673	28.00
67.0877	37.00
67.1082	35.00
67.1286	26.00
67.149	42.00
67.1695	25.00
67.1899	32.00
67.2103	31.00
67.2308	34.00
67.2512	38.00
67.2716	30.00
67.2921	24.00
67.3125	25.00
67.3329	38.00
67.3534	20.00
67.3738	35.00
67.3942	33.00
67.4147	27.00
67.4351	22.00
67.4555	20.00
67.4759	22.00
67.4964	32.00
67.5168	31.00
67.5372	25.00
67.5577	36.00
67.5781	26.00
67.5985	32.00
67.619	22.00
67.6394	30.00
67.6598	17.00
67.6803	31.00
67.7007	29.00
67.7211	18.00
67.7416	35.00
67.762	23.00
67.7824	29.00
67.8029	23.00
67.8233	28.00
67.8437	25.00
67.8642	32.00
67.8846	26.00
67.905	32.00
67.9255	31.00
67.9459	43.00
67.9663	35.00
67.9868	29.00
68.0072	47.00
68.0276	30.00
68.048	48.00
68.0685	32.00
68.0889	40.00
68.1093	34.00
68.1298	50.00
68.1502	46.00
68.1706	60.00
68.1911	56.00
68.2115	55.00
68.2319	60.00
68.2524	53.00
68.2728	26.00
68.2932	43.00
68.3137	48.00
68.3341	55.00
68.3545	42.00
68.375	39.00
68.3954	40.00
68.4158	38.00
68.4363	28.00
68.4567	33.00
68.4771	23.00
68.4976	27.00
68.518	31.00
68.5384	28.00
68.5589	29.00
68.5793	24.00
68.5997	28.00
68.6202	29.00
68.6406	27.00
68.661	19.00
68.6814	24.00
68.7019	20.00
68.7223	32.00
68.7427	22.00
68.7632	29.00
68.7836	24.00
68.804	21.00
68.8245	27.00
68.8449	28.00
68.8653	23.00
68.8858	23.00
68.9062	31.00
68.9266	34.00
68.9471	22.00
68.9675	21.00
68.9879	33.00
69.0084	21.00
69.0288	28.00
69.0492	37.00
69.0697	25.00
69.0901	20.00
69.1105	38.00
69.131	40.00
69.1514	46.00
69.1718	44.00
69.1923	52.00
69.2127	51.00
69.2331	61.00
69.2536	54.00
69.274	74.00
69.2944	58.00
69.3148	57.00
69.3353	51.00
69.3557	50.00
69.3761	39.00
69.3966	41.00
69.417	50.00
69.4374	49.00
69.4579	51.00
69.4783	70.00
69.4987	52.00
69.5192	58.00
69.5396	52.00
69.56	64.00
69.5805	55.00
69.6009	55.00
69.6213	55.00
69.6418	55.00
69.6622	73.00
69.6826	73.00
69.7031	84.00
69.7235	100.00
69.7439	102.00
69.7644	72.00
69.7848	78.00
69.8052	67.00
69.8257	74.00
69.8461	72.00
69.8665	61.00
69.8869	55.00
69.9074	65.00
69.9278	52.00
69.9482	59.00
69.9687	48.00
69.9891	53.00
70.0095	37.00
70.03	42.00
70.0504	45.00
70.0708	28.00
70.0913	53.00
70.1117	31.00
70.1321	39.00
70.1526	43.00
70.173	47.00
70.1934	42.00
70.2139	51.00
70.2343	49.00
70.2547	44.00
70.2752	37.00
70.2956	36.00
70.316	33.00
70.3365	53.00
70.3569	42.00
70.3773	31.00
70.3978	43.00
70.4182	38.00
70.4386	47.00
70.4591	37.00
70.4795	41.00
70.4999	28.00
70.5203	44.00
70.5408	37.00
70.5612	42.00
70.5816	42.00
70.6021	35.00
70.6225	39.00
70.6429	32.00
70.6634	39.00
70.6838	40.00
70.7042	37.00
70.7247	46.00
70.7451	47.00
70.7655	34.00
70.786	32.00
70.8064	36.00
70.8268	41.00
70.8473	26.00
70.8677	34.00
70.8881	42.00
70.9086	38.00
70.929	51.00
70.9494	31.00
70.9699	30.00
70.9903	37.00
71.0107	37.00
71.0312	32.00
71.0516	40.00
71.072	31.00
71.0925	44.00
71.1129	24.00
71.1333	30.00
71.1537	28.00
71.1742	36.00
71.1946	21.00
71.215	24.00
71.2355	28.00
71.2559	29.00
71.2763	26.00
71.2968	18.00
71.3172	25.00
71.3376	24.00
71.3581	21.00
71.3785	15.00
71.3989	23.00
71.4194	35.00
71.4398	26.00
71.4602	30.00
71.4807	31.00
71.5011	27.00
71.5215	17.00
71.542	27.00
71.5624	21.00
71.5828	27.00
71.6033	23.00
71.6237	29.00
71.6441	22.00
71.6646	27.00
71.685	26.00
71.7054	24.00
71.7258	26.00
71.7463	24.00
71.7667	25.00
71.7871	20.00
71.8076	27.00
71.828	31.00
71.8484	23.00
71.8689	40.00
71.8893	15.00
71.9097	21.00
71.9302	23.00
71.9506	25.00
71.971	28.00
71.9915	31.00
72.0119	29.00
72.0323	20.00
72.0528	25.00
72.0732	19.00
72.0936	27.00
72.1141	19.00
72.1345	26.00
72.1549	26.00
72.1754	19.00
72.1958	34.00
72.2162	25.00
72.2367	26.00
72.2571	33.00
72.2775	22.00
72.298	27.00
72.3184	24.00
72.3388	23.00
72.3592	29.00
72.3797	31.00
72.4001	23.00
72.4205	28.00
72.441	23.00
72.4614	22.00
72.4818	28.00
72.5023	32.00
72.5227	28.00
72.5431	24.00
72.5636	32.00
72.584	29.00
72.6044	29.00
72.6249	33.00
72.6453	31.00
72.6657	35.00
72.6862	44.00
72.7066	38.00
72.727	50.00
72.7475	49.00
72.7679	46.00
72.7883	62.00
72.8088	58.00
72.8292	69.00
72.8496	57.00
72.8701	58.00
72.8905	48.00
72.9109	40.00
72.9314	53.00
72.9518	44.00
72.9722	63.00
72.9926	52.00
73.0131	49.00
73.0335	50.00
73.0539	46.00
73.0744	41.00
73.0948	41.00
73.1152	43.00
73.1357	50.00
73.1561	34.00
73.1765	42.00
73.197	46.00
73.2174	32.00
73.2378	28.00
73.2583	28.00
73.2787	34.00
73.2991	36.00
73.3196	36.00
73.34	27.00
73.3604	31.00
73.3809	35.00
73.4013	33.00
73.4217	39.00
73.4422	30.00
73.4626	29.00
73.483	41.00
73.5035	35.00
73.5239	38.00
73.5443	39.00
73.5647	34.00
73.5852	32.00
73.6056	32.00
73.626	34.00
73.6465	48.00
73.6669	37.00
73.6873	52.00
73.7078	33.00
73.7282	48.00
73.7486	45.00
73.7691	35.00
73.7895	47.00
73.8099	57.00
73.8304	65.00
73.8508	33.00
73.8712	52.00
73.8917	53.00
73.9121	55.00
73.9325	41.00
73.953	56.00
73.9734	50.00
73.9938	42.00
74.0143	52.00
74.0347	54.00
74.0551	43.00
74.0756	47.00
74.096	55.00
74.1164	43.00
74.1369	45.00
74.1573	49.00
74.1777	54.00
74.1981	46.00
74.2186	46.00
74.239	54.00
74.2594	48.00
74.2799	69.00
74.3003	55.00
74.3207	76.00
74.3412	73.00
74.3616	99.00
74.382	114.00
74.4025	110.00
74.4229	125.00
74.4433	117.00
74.4638	131.00
74.4842	117.00
74.5046	121.00
74.5251	111.00
74.5455	114.00
74.5659	112.00
74.5864	99.00
74.6068	94.00
74.6272	114.00
74.6477	102.00
74.6681	100.00
74.6885	98.00
74.709	78.00
74.7294	94.00
74.7498	113.00
74.7703	101.00
74.7907	108.00
74.8111	117.00
74.8315	122.00
74.852	111.00
74.8724	95.00
74.8928	79.00
74.9133	81.00
74.9337	69.00
74.9541	82.00
74.9746	67.00
74.995	81.00
75.0154	80.00
75.0359	88.00
75.0563	93.00
75.0767	70.00
75.0972	68.00
75.1176	69.00
75.138	54.00
75.1585	46.00
75.1789	55.00
75.1993	49.00
75.2198	41.00
75.2402	52.00
75.2606	47.00
75.2811	31.00
75.3015	45.00
75.3219	62.00
75.3424	44.00
75.3628	52.00
75.3832	45.00
75.4036	49.00
75.4241	64.00
75.4445	66.00
75.4649	57.00
75.4854	56.00
75.5058	54.00
75.5262	64.00
75.5467	66.00
75.5671	57.00
75.5875	70.00
75.608	70.00
75.6284	71.00
75.6488	95.00
75.6693	78.00
75.6897	105.00
75.7101	95.00
75.7306	104.00
75.751	85.00
75.7714	102.00
75.7919	104.00
75.8123	121.00
75.8327	115.00
75.8532	142.00
75.8736	131.00
75.894	137.00
75.9145	121.00
75.9349	113.00
75.9553	111.00
75.9758	90.00
75.9962	82.00
76.0166	100.00
76.037	94.00
76.0575	96.00
76.0779	96.00
76.0983	79.00
76.1188	89.00
76.1392	74.00
76.1596	91.00
76.1801	71.00
76.2005	80.00
76.2209	73.00
76.2414	59.00
76.2618	60.00
76.2822	63.00
76.3027	56.00
76.3231	61.00
76.3435	46.00
76.364	98.00
76.3844	65.00
76.4048	79.00
76.4253	91.00
76.4457	98.00
76.4661	122.00
76.4866	124.00
76.507	131.00
76.5274	129.00
76.5479	92.00
76.5683	104.00
76.5887	98.00
76.6092	91.00
76.6296	96.00
76.65	95.00
76.6704	100.00
76.6909	117.00
76.7113	120.00
76.7317	133.00
76.7522	99.00
76.7726	109.00
76.793	108.00
76.8135	80.00
76.8339	53.00
76.8543	53.00
76.8748	64.00
76.8952	46.00
76.9156	54.00
76.9361	50.00
76.9565	61.00
76.9769	52.00
76.9974	51.00
77.0178	43.00
77.0382	49.00
77.0587	40.00
77.0791	41.00
77.0995	41.00
77.12	34.00
77.1404	37.00
77.1608	37.00
77.1813	32.00
77.2017	30.00
77.2221	35.00
77.2425	37.00
77.263	35.00
77.2834	34.00
77.3038	32.00
77.3243	24.00
77.3447	40.00
77.3651	37.00
77.3856	33.00
77.406	42.00
77.4264	44.00
77.4469	36.00
77.4673	50.00
77.4877	43.00
77.5082	54.00
77.5286	39.00
77.549	42.00
77.5695	52.00
77.5899	38.00
77.6103	48.00
77.6308	46.00
77.6512	43.00
77.6716	46.00
77.6921	46.00
77.7125	54.00
77.7329	34.00
77.7534	50.00
77.7738	47.00
77.7942	50.00
77.8147	43.00
77.8351	39.00
77.8555	49.00
77.8759	35.00
77.8964	40.00
77.9168	31.00
77.9372	36.00
77.9577	30.00
77.9781	41.00
77.9985	40.00
78.019	45.00
78.0394	53.00
78.0598	41.00
78.0803	54.00
78.1007	47.00
78.1211	54.00
78.1416	44.00
78.162	38.00
78.1824	38.00
78.2029	47.00
78.2233	46.00
78.2437	49.00
78.2642	35.00
78.2846	40.00
78.305	27.00
78.3255	37.00
78.3459	36.00
78.3663	49.00
78.3868	48.00
78.4072	39.00
78.4276	42.00
78.4481	50.00
78.4685	54.00
78.4889	53.00
78.5093	50.00
78.5298	59.00
78.5502	51.00
78.5706	44.00
78.5911	44.00
78.6115	41.00
78.6319	62.00
78.6524	44.00
78.6728	49.00
78.6932	44.00
78.7137	39.00
78.7341	42.00
78.7545	44.00
78.775	45.00
78.7954	42.00
78.8158	39.00
78.8363	51.00
78.8567	36.00
78.8771	43.00
78.8976	49.00
78.918	45.00
78.9384	52.00
78.9589	45.00
78.9793	55.00
78.9997	62.00
79.0202	30.00
79.0406	35.00
79.061	42.00
79.0814	34.00
79.1019	36.00
79.1223	43.00
79.1427	30.00
79.1632	32.00
79.1836	45.00
79.204	38.00
79.2245	46.00
79.2449	45.00
79.2653	47.00
79.2858	40.00
79.3062	40.00
79.3266	41.00
79.3471	24.00
79.3675	35.00
79.3879	33.00
79.4084	27.00
79.4288	29.00
79.4492	37.00
79.4697	29.00
79.4901	33.00
79.5105	30.00
79.531	37.00
79.5514	36.00
79.5718	39.00
79.5923	37.00
79.6127	35.00
79.6331	31.00
79.6536	26.00
79.674	32.00
79.6944	42.00
79.7148	47.00
79.7353	40.00
79.7557	37.00
79.7761	41.00
79.7966	44.00
79.817	53.00
79.8374	40.00
79.8579	49.00
79.8783	34.00
79.8987	40.00
79.9192	34.00
79.9396	44.00
79.96	36.00
79.9805	34.00
80.0009	42.00
