10.0001 19.440
10.0359 19.427
10.0716 18.034
10.1074 19.401
10.1431 19.141
10.1789 18.906
10.2146 18.633
10.2504 18.464
10.2862 19.245
10.3219 18.164
10.3577 18.424
10.3934 17.917
10.4292 18.581
10.4649 18.763
10.5007 18.242
10.5364 17.526
10.5722 17.526
10.6080 18.190
10.6437 17.422
10.6795 17.682
10.7152 18.516
10.7510 17.643
10.7867 18.255
10.8225 16.497
10.8583 18.294
10.8940 17.357
10.9298 17.344
10.9655 17.096
11.0013 17.773
11.0370 16.849
11.0728 16.367
11.1085 16.966
11.1443 16.953
11.1801 16.693
11.2158 15.898
11.2516 17.057
11.2873 17.370
11.3231 15.664
11.3588 16.120
11.3946 16.081
11.4304 16.315
11.4661 16.341
11.5019 15.729
11.5376 16.510
11.5734 16.172
11.6091 15.247
11.6449 15.508
11.6807 14.922
11.7164 15.365
11.7522 15.247
11.7879 15.013
11.8237 15.169
11.8594 14.544
11.8952 14.115
11.9309 14.193
11.9667 14.896
12.0025 14.310
12.0382 13.997
12.0740 13.893
12.1097 14.661
12.1455 14.674
12.1812 13.932
12.2170 13.268
12.2528 13.607
12.2885 13.008
12.3243 12.995
12.3600 13.255
12.3958 12.214
12.4315 12.904
12.4673 13.411
12.5030 12.422
12.5388 13.932
12.5746 15.260
12.6103 17.396
12.6461 23.372
12.6818 31.771
12.7176 30.339
12.7533 19.740
12.7891 13.581
12.8249 11.927
12.8606 11.393
12.8964 11.055
12.9321 10.534
12.9679 9.674
13.0036 11.029
13.0394 10.039
13.0751 10.234
13.1109 10.078
13.1467 9.479
13.1824 9.570
13.2182 9.375
13.2539 9.349
13.2897 9.687
13.3254 9.010
13.3612 8.945
13.3970 9.284
13.4327 9.167
13.4685 8.945
13.5042 8.607
13.5400 8.646
13.5757 8.685
13.6115 8.529
13.6473 8.906
13.6830 8.659
13.7188 8.320
13.7545 8.672
13.7903 8.190
13.8260 8.177
13.8618 8.008
13.8975 7.734
13.9333 7.669
13.9691 7.201
14.0048 8.724
14.0406 8.346
14.0763 7.591
14.1121 7.760
14.1478 8.307
14.1836 8.464
14.2194 8.750
14.2551 8.138
14.2909 9.219
14.3266 8.984
14.3624 8.398
14.3981 8.268
14.4339 8.268
14.4696 7.135
14.5054 6.693
14.5412 6.927
14.5769 7.083
14.6127 6.680
14.6484 6.367
14.6842 6.719
14.7199 6.849
14.7557 7.148
14.7915 6.523
14.8272 6.146
14.8630 6.367
14.8987 6.315
14.9345 6.667
14.9702 6.602
15.0060 6.536
15.0418 6.380
15.0775 6.185
15.1133 6.328
15.1490 6.263
15.1848 6.289
15.2205 6.003
15.2563 6.081
15.2920 6.029
15.3278 6.211
15.3636 5.964
15.3993 5.755
15.4351 6.250
15.4708 6.029
15.5066 6.406
15.5423 5.911
15.5781 6.419
15.6139 5.990
15.6496 5.729
15.6854 5.964
15.7211 5.964
15.7569 6.120
15.7926 6.302
15.8284 6.706
15.8641 6.719
15.8999 6.406
15.9357 7.083
15.9714 7.344
16.0072 8.542
16.0429 7.982
16.0787 8.932
16.1144 9.167
16.1502 8.555
16.1860 7.227
16.2217 7.148
16.2575 6.302
16.2932 6.211
16.3290 5.586
16.3647 5.130
16.4005 5.560
16.4363 5.534
16.4720 5.221
16.5078 5.286
16.5435 5.273
16.5793 4.961
16.6150 4.674
16.6508 4.987
16.6865 4.427
16.7223 4.922
16.7581 4.714
16.7938 4.557
16.8296 4.258
16.8653 4.388
16.9011 4.232
16.9368 4.427
16.9726 4.479
17.0084 4.349
17.0441 4.232
17.0799 4.010
17.1156 4.036
17.1514 3.867
17.1871 3.633
17.2229 3.919
17.2586 4.466
17.2944 3.789
17.3302 3.841
17.3659 3.555
17.4017 3.750
17.4374 3.737
17.4732 3.854
17.5089 3.411
17.5447 3.880
17.5805 3.698
17.6162 3.398
17.6520 3.685
17.6877 3.724
17.7235 2.865
17.7592 3.659
17.7950 3.424
17.8307 3.229
17.8665 3.216
17.9023 2.852
17.9380 3.385
17.9738 3.164
18.0095 3.021
18.0453 2.956
18.0810 3.138
18.1168 3.112
18.1526 3.437
18.1883 3.034
18.2241 2.747
18.2598 3.281
18.2956 3.151
18.3313 2.799
18.3671 2.930
18.4029 3.125
18.4386 3.073
18.4744 3.151
18.5101 2.695
18.5459 3.164
18.5816 3.086
18.6174 3.255
18.6531 2.656
18.6889 2.383
18.7247 2.917
18.7604 2.747
18.7962 2.695
18.8319 2.773
18.8677 3.008
18.9034 2.839
18.9392 2.982
18.9750 2.409
19.0107 2.383
19.0465 2.812
19.0822 2.487
19.1180 2.513
19.1537 2.565
19.1895 2.539
19.2252 2.630
19.2610 2.708
19.2968 2.448
19.3325 2.370
19.3683 2.474
19.4040 2.604
19.4398 2.461
19.4755 2.370
19.5113 2.435
19.5471 2.070
19.5828 2.656
19.6186 2.070
19.6543 2.292
19.6901 2.383
19.7258 2.057
19.7616 2.109
19.7974 2.305
19.8331 2.487
19.8689 2.539
19.9046 2.253
19.9404 2.396
19.9761 2.344
20.0119 2.266
20.0476 2.396
20.0834 2.435
20.1192 1.927
20.1549 2.331
20.1907 2.214
20.2264 2.617
20.2622 1.914
20.2979 2.253
20.3337 2.331
20.3695 2.539
20.4052 2.279
20.4410 2.318
20.4767 2.240
20.5125 2.253
20.5482 2.083
20.5840 2.240
20.6197 2.109
20.6555 2.266
20.6913 1.849
20.7270 2.109
20.7628 2.005
20.7985 2.044
20.8343 2.083
20.8700 2.174
20.9058 1.979
20.9416 2.122
20.9773 2.565
21.0131 2.083
21.0488 1.953
21.0846 1.836
21.1203 1.979
21.1561 1.992
21.1919 1.836
21.2276 2.148
21.2634 2.070
21.2991 1.940
21.3349 1.940
21.3706 2.174
21.4064 1.797
21.4421 2.161
21.4779 1.992
21.5137 1.758
21.5494 1.732
21.5852 1.901
21.6209 2.018
21.6567 1.732
21.6924 1.693
21.7282 2.005
21.7640 1.589
21.7997 1.836
21.8355 1.706
21.8712 1.471
21.9070 2.044
21.9427 1.654
21.9785 1.706
22.0142 1.758
22.0500 2.018
22.0858 2.044
22.1215 1.888
22.1573 1.940
22.1930 1.875
22.2288 1.667
22.2645 1.875
22.3003 1.654
22.3361 1.693
22.3718 1.940
22.4076 1.901
22.4433 1.523
22.4791 1.875
22.5148 1.823
22.5506 1.849
22.5863 1.667
22.6221 1.888
22.6579 1.810
22.6936 1.758
22.7294 1.862
22.7651 1.784
22.8009 1.836
22.8366 1.497
22.8724 1.771
22.9082 2.031
22.9439 1.862
22.9797 1.823
23.0154 1.953
23.0512 1.758
23.0869 2.031
23.1227 1.276
23.1585 1.536
23.1942 1.758
23.2300 1.719
23.2657 1.732
23.3015 1.549
23.3372 1.836
23.3730 1.875
23.4087 1.706
23.4445 1.667
23.4803 1.693
23.5160 1.966
23.5518 1.667
23.5875 2.005
23.6233 2.109
23.6590 2.227
23.6948 3.138
23.7306 3.919
23.7663 4.453
23.8021 3.594
23.8378 3.073
23.8736 2.409
23.9093 2.018
23.9451 2.057
23.9808 1.784
24.0166 1.758
24.0524 2.240
24.0881 1.862
24.1239 2.070
24.1596 2.122
24.1954 2.161
24.2311 2.279
24.2669 2.187
24.3027 2.578
24.3384 2.904
24.3742 2.604
24.4099 3.424
24.4457 4.232
24.4814 3.112
24.5172 2.799
24.5530 2.435
24.5887 2.292
24.6245 2.526
24.6602 2.695
24.6960 2.370
24.7317 2.318
24.7675 2.708
24.8032 2.031
24.8390 2.487
24.8748 2.526
24.9105 2.591
24.9463 2.266
24.9820 2.448
25.0178 2.201
25.0535 2.904
25.0893 3.190
25.1251 3.034
25.1608 2.760
25.1966 3.151
25.2323 3.464
25.2681 4.440
25.3038 4.674
25.3396 5.000
25.3753 5.951
25.4111 7.812
25.4469 12.448
25.4826 24.740
25.5184 40.911
25.5541 40.729
25.5899 30.729
25.6256 18.385
25.6614 10.065
25.6972 5.625
25.7329 5.560
25.7687 4.792
25.8044 5.625
25.8402 6.940
25.8759 7.409
25.9117 6.003
25.9475 4.375
25.9832 3.620
26.0190 3.398
26.0547 3.307
26.0905 3.047
26.1262 2.956
26.1620 2.917
26.1977 2.904
26.2335 2.630
26.2693 2.656
26.3050 2.930
26.3408 2.656
26.3765 2.865
26.4123 2.995
26.4480 2.852
26.4838 2.812
26.5196 2.943
26.5553 3.047
26.5911 3.190
26.6268 3.451
26.6626 4.297
26.6983 4.401
26.7341 4.727
26.7698 6.341
26.8056 7.943
26.8414 10.026
26.8771 14.010
26.9129 23.737
26.9486 42.773
26.9844 80.312
27.0201 109.531
27.0559 90.599
27.0917 70.169
27.1274 40.091
27.1632 21.367
27.1989 14.076
27.2347 9.193
27.2704 6.406
27.3062 4.948
27.3419 3.997
27.3777 3.750
27.4135 3.333
27.4492 3.203
27.4850 2.708
27.5207 2.969
27.5565 2.565
27.5922 2.331
27.6280 2.370
27.6638 2.565
27.6995 2.604
27.7353 2.669
27.7710 2.630
27.8068 2.448
27.8425 2.630
27.8783 2.500
27.9141 2.539
27.9498 1.888
27.9856 2.018
28.0213 1.875
28.0571 1.875
28.0928 1.875
28.1286 2.122
28.1643 1.706
28.2001 1.888
28.2359 1.784
28.2716 1.992
28.3074 1.953
28.3431 2.070
28.3789 1.927
28.4146 2.161
28.4504 1.914
28.4862 1.784
28.5219 1.966
28.5577 2.018
28.5934 1.758
28.6292 1.914
28.6649 1.823
28.7007 1.823
28.7364 1.706
28.7722 1.888
28.8080 1.602
28.8437 1.849
28.8795 1.719
28.9152 1.406
28.9510 1.536
28.9867 1.602
29.0225 1.602
29.0583 1.276
29.0940 1.693
29.1298 1.120
29.1655 1.393
29.2013 1.432
29.2370 1.354
29.2728 1.562
29.3086 1.367
29.3443 1.328
29.3801 1.146
29.4158 1.263
29.4516 1.419
29.4873 1.341
29.5231 1.081
29.5588 1.510
29.5946 1.432
29.6304 1.445
29.6661 1.198
29.7019 1.432
29.7376 1.354
29.7734 1.367
29.8091 1.042
29.8449 1.276
29.8807 1.471
29.9164 1.406
29.9522 1.289
29.9879 1.302
30.0237 1.302
30.0594 1.419
30.0952 1.172
30.1309 1.380
30.1667 1.380
30.2025 1.211
30.2382 1.224
30.2740 1.523
30.3097 1.562
30.3455 1.185
30.3812 1.133
30.4170 1.393
30.4528 1.328
30.4885 1.159
30.5243 1.745
30.5600 1.758
30.5958 1.693
30.6315 1.380
30.6673 1.458
30.7031 1.315
30.7388 1.341
30.7746 1.328
30.8103 1.497
30.8461 1.380
30.8818 1.315
30.9176 1.185
30.9533 1.315
30.9891 1.250
31.0249 1.380
31.0606 1.146
31.0964 1.328
31.1321 1.406
31.1679 1.393
31.2036 1.250
31.2394 1.367
31.2752 1.263
31.3109 1.328
31.3467 1.354
31.3824 1.146
31.4182 1.133
31.4539 1.172
31.4897 1.237
31.5254 1.432
31.5612 1.263
31.5970 1.406
31.6327 1.302
31.6685 1.341
31.7042 1.445
31.7400 1.354
31.7757 1.133
31.8115 1.341
31.8473 1.133
31.8830 1.315
31.9188 1.263
31.9545 1.289
31.9903 1.172
32.0260 1.445
32.0618 1.341
32.0975 1.328
32.1333 1.185
32.1691 1.211
32.2048 1.263
32.2406 1.185
32.2763 1.224
32.3121 1.354
32.3478 1.276
32.3836 1.289
32.4194 1.497
32.4551 1.211
32.4909 1.497
32.5266 1.263
32.5624 1.198
32.5981 1.198
32.6339 1.211
32.6697 1.276
32.7054 1.289
32.7412 1.172
32.7769 1.250
32.8127 1.224
32.8484 1.576
32.8842 1.159
32.9199 1.146
32.9557 1.302
32.9915 1.263
33.0272 1.198
33.0630 1.354
33.0987 1.211
33.1345 1.237
33.1702 1.263
33.2060 1.289
33.2418 1.302
33.2775 1.094
33.3133 1.328
33.3490 1.432
33.3848 1.419
33.4205 1.953
33.4563 1.549
33.4920 1.497
33.5278 1.602
33.5636 2.122
33.5993 2.422
33.6351 2.812
33.6708 2.513
33.7066 2.240
33.7423 1.641
33.7781 1.497
33.8139 1.654
33.8496 1.719
33.8854 1.797
33.9211 1.680
33.9569 1.589
33.9926 1.458
34.0284 1.667
34.0642 1.641
34.0999 1.224
34.1357 1.445
34.1714 1.510
34.2072 1.250
34.2429 1.406
34.2787 1.836
34.3144 1.602
34.3502 1.328
34.3860 1.654
34.4217 1.432
34.4575 1.589
34.4932 1.589
34.5290 1.497
34.5647 1.797
34.6005 1.836
34.6363 1.979
34.6720 1.771
34.7078 2.214
34.7435 2.187
34.7793 2.396
34.8150 2.604
34.8508 3.464
34.8865 3.659
34.9223 4.466
34.9581 5.964
34.9938 6.953
35.0296 9.036
35.0653 13.411
35.1011 21.341
35.1368 30.833
35.1726 31.068
35.2084 24.154
35.2441 21.771
35.2799 15.182
35.3156 9.505
35.3514 6.810
35.3871 4.792
35.4229 3.607
35.4587 3.138
35.4944 2.643
35.5302 2.214
35.5659 2.161
35.6017 1.901
35.6374 1.706
35.6732 1.628
35.7089 1.471
35.7447 1.784
35.7805 1.576
35.8162 1.380
35.8520 1.745
35.8877 1.380
35.9235 1.523
35.9592 1.276
35.9950 1.328
36.0308 1.341
36.0665 1.276
36.1023 1.237
36.1380 1.107
36.1738 1.510
36.2095 1.237
36.2453 1.276
36.2810 1.133
36.3168 1.367
36.3526 1.211
36.3883 1.263
36.4241 1.159
36.4598 1.224
36.4956 1.380
36.5313 1.367
36.5671 1.133
36.6029 1.432
36.6386 1.562
36.6744 1.732
36.7101 1.667
36.7459 1.458
36.7816 1.914
36.8174 1.979
36.8531 2.031
36.8889 2.357
36.9247 2.448
36.9604 2.148
36.9962 2.279
37.0319 2.174
37.0677 2.044
37.1034 2.096
37.1392 1.862
37.1750 1.992
37.2107 1.562
37.2465 1.810
37.2822 1.354
37.3180 1.406
37.3537 1.562
37.3895 1.263
37.4253 1.693
37.4610 1.510
37.4968 1.458
37.5325 1.654
37.5683 1.927
37.6040 1.432
37.6398 1.680
37.6755 1.706
37.7113 1.680
37.7471 1.536
37.7828 1.589
37.8186 1.641
37.8543 1.458
37.8901 1.510
37.9258 1.445
37.9616 1.211
37.9974 1.315
38.0331 1.589
38.0689 1.302
38.1046 1.159
38.1404 1.276
38.1761 1.029
38.2119 1.250
38.2476 1.042
38.2834 1.263
38.3192 1.289
38.3549 1.302
38.3907 0.990
38.4264 1.198
38.4622 1.146
38.4979 1.198
38.5337 1.484
38.5695 1.628
38.6052 1.888
38.6410 2.852
38.6767 3.737
38.7125 4.062
38.7482 3.346
38.7840 3.112
38.8198 2.487
38.8555 2.161
38.8913 1.602
38.9270 1.536
38.9628 1.237
38.9985 1.159
39.0343 0.977
39.0700 1.276
39.1058 1.263
39.1416 1.081
39.1773 0.872
39.2131 1.159
39.2488 1.081
39.2846 1.016
39.3203 1.081
39.3561 1.081
39.3919 1.185
39.4276 1.263
39.4634 1.380
39.4991 1.315
39.5349 1.263
39.5706 1.133
39.6064 1.432
39.6421 1.510
39.6779 1.732
39.7137 1.667
39.7494 1.589
39.7852 1.458
39.8209 1.771
39.8567 2.253
39.8924 2.253
39.9282 2.174
39.9640 2.266
39.9997 2.292
40.0355 2.057
40.0712 1.979
40.1070 2.018
40.1427 1.706
40.1785 1.836
40.2143 1.810
40.2500 1.953
40.2858 2.057
40.3215 1.784
40.3573 1.732
40.3930 1.628
40.4288 1.849
40.4645 1.719
40.5003 1.901
40.5361 2.344
40.5718 2.096
40.6076 2.214
40.6433 2.318
40.6791 2.383
40.7148 2.122
40.7506 1.797
40.7864 1.927
40.8221 2.083
40.8579 2.083
40.8936 2.174
40.9294 2.344
40.9651 1.966
41.0009 2.227
41.0366 2.318
41.0724 2.148
41.1082 2.148
41.1439 2.109
41.1797 1.927
41.2154 2.305
41.2512 2.422
41.2869 2.357
41.3227 2.396
41.3585 2.161
41.3942 2.292
41.4300 2.487
41.4657 2.643
41.5015 3.529
41.5372 3.841
41.5730 4.258
41.6087 5.052
41.6445 6.250
41.6803 9.648
41.7160 14.948
41.7518 18.503
41.7875 14.831
41.8233 12.995
41.8590 13.568
41.8948 9.518
41.9306 6.523
41.9663 5.143
42.0021 3.893
42.0378 3.294
42.0736 3.138
42.1093 2.474
42.1451 2.552
42.1809 2.279
42.2166 2.031
42.2524 2.148
42.2881 2.005
42.3239 1.901
42.3596 1.953
42.3954 1.953
42.4311 1.940
42.4669 1.953
42.5027 1.927
42.5384 1.797
42.5742 1.849
42.6099 2.057
42.6457 2.057
42.6814 2.057
42.7172 2.096
42.7530 2.383
42.7887 2.018
42.8245 2.187
42.8602 2.031
42.8960 1.615
42.9317 1.836
42.9675 1.966
43.0032 1.901
43.0390 1.536
43.0748 1.732
43.1105 1.523
43.1463 1.706
43.1820 1.497
43.2178 1.562
43.2535 1.680
43.2893 1.471
43.3251 1.445
43.3608 1.445
43.3966 1.602
43.4323 1.354
43.4681 1.315
43.5038 1.536
43.5396 1.497
43.5754 1.263
43.6111 1.523
43.6469 1.836
43.6826 1.862
43.7184 2.135
43.7541 2.161
43.7899 2.721
43.8256 2.617
43.8614 2.630
43.8972 2.630
43.9329 2.773
43.9687 1.992
44.0044 1.823
44.0402 1.758
44.0759 1.549
44.1117 1.589
44.1475 1.745
44.1832 1.602
44.2190 1.810
44.2547 1.523
44.2905 1.419
44.3262 1.680
44.3620 1.602
44.3977 1.693
44.4335 1.510
44.4693 1.680
44.5050 1.706
44.5408 1.823
44.5765 1.667
44.6123 1.419
44.6480 1.354
44.6838 1.823
44.7196 1.589
44.7553 1.654
44.7911 1.484
44.8268 1.445
44.8626 1.406
44.8983 1.445
44.9341 1.615
44.9699 1.224
45.0056 1.276
45.0414 1.458
45.0771 1.549
45.1129 1.406
45.1486 1.628
45.1844 1.458
45.2201 1.406
45.2559 1.654
45.2917 1.458
45.3274 1.510
45.3632 1.315
45.3989 1.497
45.4347 1.680
45.4704 2.135
45.5062 2.005
45.5420 1.992
45.5777 2.057
45.6135 2.409
45.6492 2.513
45.6850 3.242
45.7207 3.685
45.7565 4.232
45.7922 5.781
45.8280 7.500
45.8638 9.922
45.8995 14.271
45.9353 16.888
45.9710 12.930
46.0068 11.172
46.0425 11.042
46.0783 8.737
46.1141 6.159
46.1498 4.961
46.1856 3.919
46.2213 3.073
46.2571 2.708
46.2928 1.940
46.3286 2.253
46.3643 1.719
46.4001 1.432
46.4359 1.953
46.4716 1.654
46.5074 1.706
46.5431 1.667
46.5789 1.536
46.6146 1.289
46.6504 1.341
46.6862 1.341
46.7219 1.641
46.7577 1.497
46.7934 1.302
46.8292 1.172
46.8649 1.159
46.9007 1.654
46.9365 1.211
46.9722 1.380
47.0080 1.471
47.0437 1.367
47.0795 1.328
47.1152 1.562
47.1510 1.445
47.1867 1.198
47.2225 1.224
47.2583 1.484
47.2940 1.237
47.3298 1.576
47.3655 2.005
47.4013 1.302
47.4370 1.406
47.4728 1.471
47.5086 1.393
47.5443 1.341
47.5801 1.263
47.6158 1.354
47.6516 1.263
47.6873 1.393
47.7231 1.016
47.7588 1.432
47.7946 1.602
47.8304 1.406
47.8661 1.680
47.9019 1.562
47.9376 1.328
47.9734 1.471
48.0091 1.419
48.0449 1.523
48.0807 1.484
48.1164 1.680
48.1522 1.602
48.1879 1.510
48.2237 1.576
48.2594 1.693
48.2952 1.393
48.3310 1.458
48.3667 1.628
48.4025 1.445
48.4382 1.367
48.4740 1.341
48.5097 1.172
48.5455 1.536
48.5812 1.549
48.6170 1.667
48.6528 1.393
48.6885 1.354
48.7243 1.549
48.7600 1.562
48.7958 1.471
48.8315 1.523
48.8673 1.224
48.9031 1.354
48.9388 1.328
48.9746 1.628
49.0103 1.432
49.0461 1.458
49.0818 1.523
49.1176 1.615
49.1533 1.667
49.1891 1.914
49.2249 1.849
49.2606 1.667
49.2964 1.784
49.3321 1.953
49.3679 2.057
49.4036 2.305
49.4394 2.852
49.4752 3.268
49.5109 4.232
49.5467 5.391
49.5824 7.656
49.6182 5.339
49.6539 4.531
49.6897 4.961
49.7255 4.284
49.7612 3.372
49.7970 3.047
49.8327 2.904
49.8685 2.591
49.9042 2.526
49.9400 2.266
49.9757 2.435
50.0115 2.396
50.0473 2.187
50.0830 2.383
50.1188 2.708
50.1545 2.604
50.1903 2.721
50.2260 2.826
50.2618 2.799
50.2976 3.268
50.3333 4.271
50.3691 5.326
50.4048 7.604
50.4406 8.555
50.4763 6.250
50.5121 5.612
50.5478 5.469
50.5836 5.547
50.6194 4.115
50.6551 3.698
50.6909 2.826
50.7266 2.383
50.7624 2.396
50.7981 2.240
50.8339 2.135
50.8697 2.240
50.9054 2.070
50.9412 1.823
50.9769 2.318
51.0127 2.031
51.0484 2.031
51.0842 1.797
51.1199 1.784
51.1557 1.667
51.1915 1.758
51.2272 1.927
51.2630 1.771
51.2987 1.589
51.3345 1.992
51.3702 1.406
51.4060 1.979
51.4418 1.888
51.4775 1.901
51.5133 1.862
51.5490 1.602
51.5848 1.901
51.6205 1.953
51.6563 1.784
51.6921 1.784
51.7278 1.719
51.7636 1.745
51.7993 1.549
51.8351 1.602
51.8708 1.458
51.9066 1.510
51.9423 1.810
51.9781 1.810
52.0139 1.458
52.0496 1.797
52.0854 1.641
52.1211 1.836
52.1569 1.875
52.1926 2.148
52.2284 2.070
52.2642 2.643
52.2999 2.812
52.3357 3.958
52.3714 4.766
52.4072 6.341
52.4429 7.122
52.4787 6.758
52.5144 6.107
52.5502 5.378
52.5860 5.221
52.6217 4.232
52.6575 2.956
52.6932 2.331
52.7290 1.823
52.7647 2.057
52.8005 1.901
52.8363 1.510
52.8720 1.510
52.9078 1.393
52.9435 1.602
52.9793 1.497
53.0150 1.328
53.0508 1.510
53.0866 1.211
53.1223 1.237
53.1581 1.328
53.1938 1.589
53.2296 1.172
53.2653 1.198
53.3011 1.250
53.3368 1.315
53.3726 1.198
53.4084 1.224
53.4441 1.276
53.4799 1.393
53.5156 1.146
53.5514 1.172
53.5871 1.003
53.6229 1.367
53.6587 1.354
53.6944 1.185
53.7302 1.484
53.7659 1.133
53.8017 1.029
53.8374 1.120
53.8732 0.807
53.9089 1.172
53.9447 1.120
53.9805 1.237
54.0162 1.107
54.0520 1.055
54.0877 1.198
54.1235 1.354
54.1592 1.120
54.1950 1.159
54.2308 0.990
54.2665 1.159
54.3023 1.276
54.3380 1.185
54.3738 1.081
54.4095 1.198
54.4453 1.172
54.4810 1.068
54.5168 0.990
54.5526 1.237
54.5883 0.911
54.6241 1.198
54.6598 1.107
54.6956 0.937
54.7313 0.977
54.7671 1.120
54.8029 1.107
54.8386 0.951
54.8744 1.198
54.9101 1.120
54.9459 1.367
54.9816 1.133
55.0174 1.198
55.0532 1.185
55.0889 1.120
55.1247 1.107
55.1604 1.172
55.1962 1.146
55.2319 1.315
55.2677 1.133
55.3034 1.406
55.3392 1.302
55.3750 1.432
55.4107 1.628
55.4465 1.602
55.4822 1.927
55.5180 1.979
55.5537 2.057
55.5895 2.812
55.6253 3.307
55.6610 4.388
55.6968 4.492
55.7325 3.555
55.7683 2.656
55.8040 3.008
55.8398 3.034
55.8755 2.643
55.9113 2.331
55.9471 2.018
55.9828 1.745
56.0186 1.602
56.0543 1.419
56.0901 1.211
56.1258 1.224
56.1616 1.211
56.1974 1.263
56.2331 1.198
56.2689 1.120
56.3046 1.081
56.3404 1.094
56.3761 1.107
56.4119 1.224
56.4477 1.107
56.4834 1.068
56.5192 0.898
56.5549 1.107
56.5907 0.924
56.6264 1.185
56.6622 0.924
56.6979 0.990
56.7337 0.807
56.7695 0.951
56.8052 1.159
56.8410 0.833
56.8767 0.990
56.9125 1.003
56.9482 1.016
56.9840 1.159
57.0198 0.924
57.0555 1.081
57.0913 0.833
57.1270 0.964
57.1628 1.198
57.1985 1.133
57.2343 0.977
57.2700 1.094
57.3058 1.133
57.3416 1.081
57.3773 1.055
57.4131 1.055
57.4488 1.081
57.4846 1.185
57.5203 0.951
57.5561 1.302
57.5919 1.003
57.6276 1.341
57.6634 1.081
57.6991 1.016
57.7349 1.367
57.7706 1.315
57.8064 1.146
57.8422 0.872
57.8779 1.211
57.9137 1.250
57.9494 1.445
57.9852 1.471
58.0209 1.250
58.0567 1.276
58.0924 1.497
58.1282 1.667
58.1640 2.005
58.1997 2.135
58.2355 2.474
58.2712 2.266
58.3070 2.461
58.3427 2.552
58.3785 2.682
58.4143 2.331
58.4500 2.266
58.4858 1.797
58.5215 1.810
58.5573 1.602
58.5930 1.628
58.6288 1.562
58.6645 1.120
58.7003 1.107
58.7361 1.224
58.7718 1.237
58.8076 1.055
58.8433 1.198
58.8791 0.937
58.9148 1.094
58.9506 1.029
58.9864 1.029
59.0221 1.068
59.0579 0.977
59.0936 1.250
59.1294 0.990
59.1651 0.977
59.2009 0.911
59.2366 0.977
59.2724 1.055
59.3082 0.964
59.3439 0.885
59.3797 1.016
59.4154 0.937
59.4512 0.977
59.4869 1.094
59.5227 0.924
59.5585 0.716
59.5942 0.911
59.6300 0.794
59.6657 0.898
59.7015 0.794
59.7372 0.872
59.7730 0.664
59.8088 0.964
59.8445 0.937
59.8803 0.768
59.9160 0.951
59.9518 0.911
59.9875 0.937
